# frequency(Hz) HVamp
2.000000000000000042e-02 1.230933999999999973e+00
2.043777802275861116e-02 1.198674000000000017e+00
2.088513892042544867e-02 1.170055000000000067e+00
2.134229185993890415e-02 1.145674999999999999e+00
2.180945121728470465e-02 1.125613999999999892e+00
2.228683671448790371e-02 1.108753000000000100e+00
2.277467095838639488e-02 1.092921999999999949e+00
2.327318386720582041e-02 1.075736999999999943e+00
2.378260869151607032e-02 1.055822000000000038e+00
2.430318396985316209e-02 1.033549999999999969e+00
2.483515418061077798e-02 1.011018999999999890e+00
2.537876860438217572e-02 9.915059999999999985e-01
2.593428185548686538e-02 9.780149999999999677e-01
2.650195524800330604e-02 9.715629999999999544e-01
2.708205410122367304e-02 9.706399999999999473e-01
2.767485116257483238e-02 9.723659999999999526e-01
2.828062296556268368e-02 9.744070000000000231e-01
2.889965516642458918e-02 9.762410000000000254e-01
2.953223712425469966e-02 9.788820000000000299e-01
3.017866585007221089e-02 9.834829999999999961e-01
3.083924344304486698e-02 9.901309999999999834e-01
3.151428172097601316e-02 9.979740000000000277e-01
3.220409460893151193e-02 1.006526000000000032e+00
3.290900679366954434e-02 1.016836000000000073e+00
3.362935008254323843e-02 1.031330000000000080e+00
3.436545982617606604e-02 1.052210000000000090e+00
3.511768145762538679e-02 1.079415999999999931e+00
3.588636982920923035e-02 1.109734999999999916e+00
3.667188287528685281e-02 1.138020999999999949e+00
3.747459035401046190e-02 1.159863000000000088e+00
3.829486888200696326e-02 1.173859999999999904e+00
3.913310161841203338e-02 1.182077999999999962e+00
3.998968266187323539e-02 1.188681000000000099e+00
4.086501260624340881e-02 1.197899000000000047e+00
4.175950326235679244e-02 1.212507999999999919e+00
4.267357455111880221e-02 1.233190000000000008e+00
4.360765235805109941e-02 1.258620999999999990e+00
4.456217573218773653e-02 1.285949999999999926e+00
4.553759360593897382e-02 1.311509000000000036e+00
4.653436264861679494e-02 1.332036999999999916e+00
4.755294901990994583e-02 1.346187999999999940e+00
4.859383060501651364e-02 1.355210000000000026e+00
4.965749734357217948e-02 1.362114999999999965e+00
5.074444382592605690e-02 1.369985000000000008e+00
5.185518671652646766e-02 1.380878999999999968e+00
5.299023919793973553e-02 1.395817000000000085e+00
5.415013688613103116e-02 1.415083000000000091e+00
5.533542508618215922e-02 1.438347000000000042e+00
5.654665825930951795e-02 1.464534999999999920e+00
5.778440269534190765e-02 1.491748999999999992e+00
5.904923992113619846e-02 1.517649000000000026e+00
6.034176368113722960e-02 1.540300000000000002e+00
6.166257977365023624e-02 1.559040999999999899e+00
6.301230579922413588e-02 1.574615000000000098e+00
6.439157495481964699e-02 1.588092000000000059e+00
6.580103648476649802e-02 1.599623000000000017e+00
6.724135160227064090e-02 1.608438000000000034e+00
6.871319291929786632e-02 1.613974999999999937e+00
7.021724865648072689e-02 1.616789000000000032e+00
7.175422799231455373e-02 1.618204999999999893e+00
7.332484622679873165e-02 1.619196000000000080e+00
7.492985067379918929e-02 1.619869000000000003e+00
7.656998328017844413e-02 1.619931000000000010e+00
7.824601847091161577e-02 1.619439000000000073e+00
7.995873489609482687e-02 1.618951000000000029e+00
8.170894587125514252e-02 1.618907000000000096e+00
8.349746848200181870e-02 1.618997000000000019e+00
8.532513483931059017e-02 1.618108000000000102e+00
8.719280666320453066e-02 1.614767999999999981e+00
8.910136197668877545e-02 1.607825999999999977e+00
9.105169441740208758e-02 1.597148999999999930e+00
9.304472101470850909e-02 1.584065999999999974e+00
9.508136492722282784e-02 1.570974000000000093e+00
9.716259003207046441e-02 1.559808000000000083e+00
9.928937600698042876e-02 1.550683000000000034e+00
1.014627169666056788e-01 1.542067999999999994e+00
1.036836198025345573e-01 1.532210000000000072e+00
1.059531470945422049e-01 1.520399999999999974e+00
1.082723426204657002e-01 1.507122000000000073e+00
1.106423073612318730e-01 1.493338999999999972e+00
1.130641434367904014e-01 1.479911999999999894e+00
1.155389888050807612e-01 1.467540000000000067e+00
1.180680199308263012e-01 1.456625000000000059e+00
1.206523964642573915e-01 1.446965999999999974e+00
1.232933427266421494e-01 1.437694999999999945e+00
1.259921091142061633e-01 1.427527999999999908e+00
1.287499385219043613e-01 1.415332000000000034e+00
1.315681276210838024e-01 1.400784999999999947e+00
1.344480149355610776e-01 1.384546000000000054e+00
1.373909270603933253e-01 1.367820999999999954e+00
1.403982677661723133e-01 1.351828999999999947e+00
1.434714465996406174e-01 1.337522000000000100e+00
1.466118729226930095e-01 1.325560000000000072e+00
1.498210387691902012e-01 1.316446000000000005e+00
1.531004603883944215e-01 1.310491999999999990e+00
1.564516759885790365e-01 1.307296000000000014e+00
1.598762174374112610e-01 1.305204000000000031e+00
1.633757347823671657e-01 1.301776999999999962e+00
1.669518482487836186e-01 1.295341000000000076e+00
1.706062493069121222e-01 1.286248000000000058e+00
1.743406480276755433e-01 1.276631999999999989e+00
1.781567686922972404e-01 1.269053999999999904e+00
1.820564109071452219e-01 1.265200000000000102e+00
1.860414236112984399e-01 1.265422000000000047e+00
1.901136708649468487e-01 1.269077999999999928e+00
1.942750635716576912e-01 1.275195000000000078e+00
1.985275213739692568e-01 1.282980000000000009e+00
2.028730886819132551e-01 1.292067999999999994e+00
2.073137384534022021e-01 1.302499000000000073e+00
2.118516148918974384e-01 1.314391000000000087e+00
2.164888283105038391e-01 1.327490000000000059e+00
2.212275340673810209e-01 1.341047000000000100e+00
2.260699835805370650e-01 1.353996999999999895e+00
2.310183752015635139e-01 1.365061000000000080e+00
2.360751096568884100e-01 1.372848999999999986e+00
2.412425341466744866e-01 1.376355999999999913e+00
2.465230998307618715e-01 1.375734000000000012e+00
2.519191833183147544e-01 1.372644999999999893e+00
2.574334553825345373e-01 1.369696999999999942e+00
2.630683822583526066e-01 1.369216999999999906e+00
2.688266710467492326e-01 1.372185999999999906e+00
2.747110108843249798e-01 1.377836000000000061e+00
2.807241335168895180e-01 1.384120000000000017e+00
2.868688920234096495e-01 1.388897000000000048e+00
2.931481028187655768e-01 1.391248000000000040e+00
2.995647922697904919e-01 1.392055999999999960e+00
3.061219491886544297e-01 1.393256000000000050e+00
3.128225983045015424e-01 1.396500000000000075e+00
3.196699982673885665e-01 1.402419000000000082e+00
3.266672524899394969e-01 1.410695000000000032e+00
3.338175913859038335e-01 1.420404999999999918e+00
3.411245032800827026e-01 1.429983999999999922e+00
3.485912903071751723e-01 1.436979000000000006e+00
3.562216425308692980e-01 1.438747999999999916e+00
3.640189144227933826e-01 1.434263999999999983e+00
3.719868599361595973e-01 1.425529999999999964e+00
3.801292743636255911e-01 1.417187999999999892e+00
3.884498326752345854e-01 1.414409000000000027e+00
3.969526737144291051e-01 1.420333000000000068e+00
4.056414997215270768e-01 1.434641000000000055e+00
4.145204868460213854e-01 1.454307999999999934e+00
4.235940173275368759e-01 1.476174000000000097e+00
4.328659535344370757e-01 1.499160999999999966e+00
4.423408678727827614e-01 1.524197000000000024e+00
4.520233696082087693e-01 1.552397999999999945e+00
4.619176604055267865e-01 1.583409000000000066e+00
4.720285331807737017e-01 1.615040000000000031e+00
4.823605567984378673e-01 1.644201999999999941e+00
4.929189725005434508e-01 1.668457999999999997e+00
5.037085542305222985e-01 1.687146999999999952e+00
5.147340034826902722e-01 1.701389000000000040e+00
5.260010193899755659e-01 1.713195000000000023e+00
5.375147682182568332e-01 1.724437999999999915e+00
5.492803329078241870e-01 1.736545000000000005e+00
5.613033013614973088e-01 1.750930000000000097e+00
5.735898580135665448e-01 1.769457000000000058e+00
5.861448258358571417e-01 1.794192999999999927e+00
5.989749143316128732e-01 1.826446000000000014e+00
6.120861303119130570e-01 1.865642999999999940e+00
6.254839682204105245e-01 1.908708999999999989e+00
6.391749019026319312e-01 1.950733999999999968e+00
6.531657310067570110e-01 1.987060999999999966e+00
6.674631727194452191e-01 2.015689000000000064e+00
6.820728740300071591e-01 2.038593999999999795e+00
6.970030263871405118e-01 2.060611000000000193e+00
7.122593364734473020e-01 2.086450999999999834e+00
7.278502433567288765e-01 2.118291000000000146e+00
7.437819826252529687e-01 2.155482999999999816e+00
7.600626595656545526e-01 2.195997999999999895e+00
7.766996323880640540e-01 2.237992000000000203e+00
7.937005574159013976e-01 2.280187999999999882e+00
8.110740810733430006e-01 2.321207999999999938e+00
8.288272757110509703e-01 2.359402999999999917e+00
8.469695429752346350e-01 2.393575999999999926e+00
8.655086161382736787e-01 2.423310999999999993e+00
8.844540397880493732e-01 2.448595000000000077e+00
9.038134601323364326e-01 2.469111999999999973e+00
9.235972635660274488e-01 2.483220000000000205e+00
9.438138195107080852e-01 2.487216999999999789e+00
9.644726842046378312e-01 2.476249000000000144e+00
9.855838648094324972e-01 2.447124000000000077e+00
1.007156856623164121e+00 2.401091999999999782e+00
1.029202594413900052e+00 2.344167000000000112e+00
1.051730412046940843e+00 2.284783000000000008e+00
1.074752242739242414e+00 2.230780999999999903e+00
1.098277132661993116e+00 2.187371000000000176e+00
1.122316821060050707e+00 2.156495000000000051e+00
1.146883687643933891e+00 2.137306000000000150e+00
1.171988078537265165e+00 2.127139999999999809e+00
1.197640647923590596e+00 2.122144000000000030e+00
1.223856887071053556e+00 2.117523999999999962e+00
1.250645645814651763e+00 2.108633999999999897e+00
1.278020601692099190e+00 2.093288999999999955e+00
1.305994514823037633e+00 2.073500000000000121e+00
1.334582502555725414e+00 2.054387999999999881e+00
1.363795059788775355e+00 2.040589999999999904e+00
1.393646643680787944e+00 2.033115000000000006e+00
1.424152486855072564e+00 2.028939999999999966e+00
1.455324450032890349e+00 2.023267000000000149e+00
1.487179029585939727e+00 2.013030999999999793e+00
1.519733742648287977e+00 1.999284000000000061e+00
1.552997595959721311e+00 1.986429000000000000e+00
1.586991746055928854e+00 1.978726999999999903e+00
1.621728568046108876e+00 1.977070000000000105e+00
1.657226002538870313e+00 1.978153999999999968e+00
1.693503044918474698e+00 1.975797999999999943e+00
1.730570880722132499e+00 1.963413000000000075e+00
1.768449794594556090e+00 1.936906000000000017e+00
1.807161419272292235e+00 1.896860999999999908e+00
1.846718657952616915e+00 1.848651000000000044e+00
1.887141395956233536e+00 1.800492999999999899e+00
1.928446905999783967e+00 1.760602999999999918e+00
1.970660801980119947e+00 1.734420999999999990e+00
2.013794492272063863e+00 1.722817000000000043e+00
2.057875696076454375e+00 1.722105999999999915e+00
2.102921167794182811e+00 1.725948000000000038e+00
2.148947875120341244e+00 1.728347000000000078e+00
2.195987491655247315e+00 1.726069999999999993e+00
2.244054377925685628e+00 1.719079999999999941e+00
2.293172994677545429e+00 1.709244999999999903e+00
2.343369202504593130e+00 1.698681000000000108e+00
2.394664687077192156e+00 1.689003000000000032e+00
2.447081854888045971e+00 1.681319999999999926e+00
2.500643915808320461e+00 1.676426999999999889e+00
2.555381505681890708e+00 1.674852000000000007e+00
2.611313778074887182e+00 1.676466000000000012e+00
2.668474113132628389e+00 1.679902999999999924e+00
2.726883526623927079e+00 1.682452999999999976e+00
2.786570957242854973e+00 1.680722999999999967e+00
2.847566896465314912e+00 1.672055000000000069e+00
2.909895098281706893e+00 1.656025999999999998e+00
2.973597428432943612e+00 1.634819000000000022e+00
3.038682427299522981e+00 1.612101999999999924e+00
3.105194680180473732e+00 1.591334999999999944e+00
3.173162659491088000e+00 1.574516999999999944e+00
3.242626267866870915e+00 1.561746999999999996e+00
3.313595350363004233e+00 1.551555000000000017e+00
3.386134456627003964e+00 1.542018000000000111e+00
3.460243531939777739e+00 1.532219999999999915e+00
3.535992871438371044e+00 1.522917999999999994e+00
3.613382523514086397e+00 1.516008000000000022e+00
3.692475841976804229e+00 1.513439999999999896e+00
3.773300128292204736e+00 1.516391000000000044e+00
3.855897402281920350e+00 1.524999999999999911e+00
3.940296625529969621e+00 1.538388000000000089e+00
4.026542971266589888e+00 1.554867999999999917e+00
4.114684485993613805e+00 1.572303000000000006e+00
4.204754736656211023e+00 1.588516999999999957e+00
4.296787721499407020e+00 1.601812999999999931e+00
4.390837200929101236e+00 1.611482000000000081e+00
4.486960891648868355e+00 1.617969999999999908e+00
4.585157844058781684e+00 1.622711000000000015e+00
4.685530612914259763e+00 1.627795000000000103e+00
4.788102522851219511e+00 1.635548999999999920e+00
4.892894538551115780e+00 1.647840999999999889e+00
