# frequency(Hz) HVamp
2.000000000000000042e-02 4.566830000000000056e-01
2.043777802275861116e-02 4.444710000000000050e-01
2.088513892042544867e-02 4.412189999999999723e-01
2.134229185993890415e-02 4.434949999999999726e-01
2.180945121728470465e-02 4.470770000000000022e-01
2.228683671448790371e-02 4.489540000000000197e-01
2.277467095838639488e-02 4.478210000000000246e-01
2.327318386720582041e-02 4.434779999999999833e-01
2.378260869151607032e-02 4.365280000000000271e-01
2.430318396985316209e-02 4.279410000000000158e-01
2.483515418061077798e-02 4.198990000000000222e-01
2.537876860438217572e-02 4.166500000000000203e-01
2.593428185548686538e-02 4.237349999999999728e-01
2.650195524800330604e-02 4.457530000000000103e-01
2.708205410122367304e-02 4.837520000000000153e-01
2.767485116257483238e-02 5.337480000000000002e-01
2.828062296556268368e-02 5.881739999999999746e-01
2.889965516642458918e-02 6.399240000000000483e-01
2.953223712425469966e-02 6.857539999999999747e-01
3.017866585007221089e-02 7.259780000000000122e-01
3.083924344304486698e-02 7.618230000000000279e-01
3.151428172097601316e-02 7.941700000000000426e-01
3.220409460893151193e-02 8.246609999999999774e-01
3.290900679366954434e-02 8.570670000000000233e-01
3.362935008254323843e-02 8.962830000000000519e-01
3.436545982617606604e-02 9.449509999999999854e-01
3.511768145762538679e-02 1.000358000000000080e+00
3.588636982920923035e-02 1.054672000000000054e+00
3.667188287528685281e-02 1.098810000000000064e+00
3.747459035401046190e-02 1.127402999999999933e+00
3.829486888200696326e-02 1.141712000000000060e+00
3.913310161841203338e-02 1.148072999999999899e+00
3.998968266187323539e-02 1.153782000000000085e+00
4.086501260624340881e-02 1.163743999999999890e+00
4.175950326235679244e-02 1.178312999999999944e+00
4.267357455111880221e-02 1.192711000000000077e+00
4.360765235805109941e-02 1.199689000000000005e+00
4.456217573218773653e-02 1.194372999999999907e+00
4.553759360593897382e-02 1.176827999999999985e+00
4.653436264861679494e-02 1.150462000000000096e+00
4.755294901990994583e-02 1.119607000000000019e+00
4.859383060501651364e-02 1.089242999999999961e+00
4.965749734357217948e-02 1.064993000000000078e+00
5.074444382592605690e-02 1.051117999999999997e+00
5.185518671652646766e-02 1.048705999999999916e+00
5.299023919793973553e-02 1.055315999999999921e+00
5.415013688613103116e-02 1.065631999999999913e+00
5.533542508618215922e-02 1.072643000000000013e+00
5.654665825930951795e-02 1.069347000000000047e+00
5.778440269534190765e-02 1.051174000000000053e+00
5.904923992113619846e-02 1.018186000000000035e+00
6.034176368113722960e-02 9.752600000000000158e-01
6.166257977365023624e-02 9.300239999999999618e-01
6.301230579922413588e-02 8.896340000000000359e-01
6.439157495481964699e-02 8.580590000000000162e-01
6.580103648476649802e-02 8.355559999999999654e-01
6.724135160227064090e-02 8.199969999999999759e-01
6.871319291929786632e-02 8.086710000000000287e-01
7.021724865648072689e-02 7.992270000000000207e-01
7.175422799231455373e-02 7.895900000000000141e-01
7.332484622679873165e-02 7.779179999999999984e-01
7.492985067379918929e-02 7.628049999999999553e-01
7.656998328017844413e-02 7.433959999999999457e-01
7.824601847091161577e-02 7.196470000000000367e-01
7.995873489609482687e-02 6.932289999999999841e-01
8.170894587125514252e-02 6.681939999999999547e-01
8.349746848200181870e-02 6.496530000000000360e-01
8.532513483931059017e-02 6.408599999999999852e-01
8.719280666320453066e-02 6.410869999999999624e-01
8.910136197668877545e-02 6.464170000000000194e-01
9.105169441740208758e-02 6.528140000000000054e-01
9.304472101470850909e-02 6.588079999999999492e-01
9.508136492722282784e-02 6.664670000000000316e-01
9.716259003207046441e-02 6.807379999999999542e-01
9.928937600698042876e-02 7.067069999999999741e-01
1.014627169666056788e-01 7.459160000000000235e-01
1.036836198025345573e-01 7.945090000000000208e-01
1.059531470945422049e-01 8.447099999999999609e-01
1.082723426204657002e-01 8.886549999999999727e-01
1.106423073612318730e-01 9.221859999999999502e-01
1.130641434367904014e-01 9.461260000000000225e-01
1.155389888050807612e-01 9.646029999999999882e-01
1.180680199308263012e-01 9.820109999999999673e-01
1.206523964642573915e-01 1.000285000000000091e+00
1.232933427266421494e-01 1.017840999999999996e+00
1.259921091142061633e-01 1.031007000000000007e+00
1.287499385219043613e-01 1.036567000000000016e+00
1.315681276210838024e-01 1.033179999999999987e+00
1.344480149355610776e-01 1.021001999999999965e+00
1.373909270603933253e-01 1.000593000000000066e+00
1.403982677661723133e-01 9.724209999999999798e-01
1.434714465996406174e-01 9.373040000000000260e-01
1.466118729226930095e-01 8.970860000000000500e-01
1.498210387691902012e-01 8.550290000000000390e-01
1.531004603883944215e-01 8.159340000000000481e-01
1.564516759885790365e-01 7.855159999999999920e-01
1.598762174374112610e-01 7.683259999999999534e-01
1.633757347823671657e-01 7.646239999999999704e-01
1.669518482487836186e-01 7.686140000000000194e-01
1.706062493069121222e-01 7.704830000000000290e-01
1.743406480276755433e-01 7.619930000000000314e-01
1.781567686922972404e-01 7.418839999999999879e-01
1.820564109071452219e-01 7.165939999999999532e-01
1.860414236112984399e-01 6.957790000000000363e-01
1.901136708649468487e-01 6.873340000000000005e-01
1.942750635716576912e-01 6.950790000000000024e-01
1.985275213739692568e-01 7.180769999999999653e-01
2.028730886819132551e-01 7.507509999999999462e-01
2.073137384534022021e-01 7.849340000000000206e-01
2.118516148918974384e-01 8.133470000000000422e-01
2.164888283105038391e-01 8.319839999999999458e-01
2.212275340673810209e-01 8.404179999999999984e-01
2.260699835805370650e-01 8.406860000000000444e-01
2.310183752015635139e-01 8.351790000000000047e-01
2.360751096568884100e-01 8.249260000000000481e-01
2.412425341466744866e-01 8.100779999999999648e-01
2.465230998307618715e-01 7.919169999999999821e-01
2.519191833183147544e-01 7.738559999999999883e-01
2.574334553825345373e-01 7.600179999999999714e-01
2.630683822583526066e-01 7.525779999999999692e-01
2.688266710467492326e-01 7.502670000000000172e-01
2.747110108843249798e-01 7.494180000000000286e-01
2.807241335168895180e-01 7.467340000000000089e-01
2.868688920234096495e-01 7.414979999999999905e-01
2.931481028187655768e-01 7.353429999999999689e-01
2.995647922697904919e-01 7.302920000000000522e-01
3.061219491886544297e-01 7.272699999999999720e-01
3.128225983045015424e-01 7.259200000000000097e-01
3.196699982673885665e-01 7.249659999999999993e-01
3.266672524899394969e-01 7.224220000000000086e-01
3.338175913859038335e-01 7.158010000000000206e-01
3.411245032800827026e-01 7.026510000000000256e-01
3.485912903071751723e-01 6.817530000000000534e-01
3.562216425308692980e-01 6.546579999999999622e-01
3.640189144227933826e-01 6.258340000000000014e-01
3.719868599361595973e-01 6.007289999999999575e-01
3.801292743636255911e-01 5.832349999999999479e-01
3.884498326752345854e-01 5.742599999999999927e-01
3.969526737144291051e-01 5.718469999999999942e-01
4.056414997215270768e-01 5.723599999999999799e-01
4.145204868460213854e-01 5.719969999999999777e-01
4.235940173275368759e-01 5.679760000000000364e-01
4.328659535344370757e-01 5.590469999999999606e-01
4.423408678727827614e-01 5.455160000000000009e-01
4.520233696082087693e-01 5.292040000000000077e-01
4.619176604055267865e-01 5.129430000000000378e-01
4.720285331807737017e-01 4.995410000000000128e-01
4.823605567984378673e-01 4.910050000000000248e-01
4.929189725005434508e-01 4.882619999999999738e-01
5.037085542305222985e-01 4.907630000000000048e-01
5.147340034826902722e-01 4.959180000000000255e-01
5.260010193899755659e-01 4.993500000000000161e-01
5.375147682182568332e-01 4.965840000000000254e-01
5.492803329078241870e-01 4.855599999999999916e-01
5.613033013614973088e-01 4.683899999999999730e-01
5.735898580135665448e-01 4.506789999999999963e-01
5.861448258358571417e-01 4.382499999999999729e-01
5.989749143316128732e-01 4.335609999999999742e-01
6.120861303119130570e-01 4.345180000000000153e-01
6.254839682204105245e-01 4.363770000000000149e-01
6.391749019026319312e-01 4.350800000000000223e-01
6.531657310067570110e-01 4.293680000000000274e-01
6.674631727194452191e-01 4.204860000000000264e-01
6.820728740300071591e-01 4.109079999999999955e-01
6.970030263871405118e-01 4.037569999999999770e-01
7.122593364734473020e-01 4.026179999999999759e-01
7.278502433567288765e-01 4.105079999999999840e-01
7.437819826252529687e-01 4.279399999999999871e-01
7.600626595656545526e-01 4.518340000000000134e-01
7.766996323880640540e-01 4.766870000000000274e-01
7.937005574159013976e-01 4.968980000000000063e-01
8.110740810733430006e-01 5.083750000000000213e-01
8.288272757110509703e-01 5.096220000000000194e-01
8.469695429752346350e-01 5.030000000000000027e-01
8.655086161382736787e-01 4.949189999999999978e-01
8.844540397880493732e-01 4.933480000000000087e-01
9.038134601323364326e-01 5.037209999999999743e-01
9.235972635660274488e-01 5.264199999999999990e-01
9.438138195107080852e-01 5.580920000000000325e-01
9.644726842046378312e-01 5.954869999999999886e-01
9.855838648094324972e-01 6.375389999999999668e-01
1.007156856623164121e+00 6.835320000000000285e-01
1.029202594413900052e+00 7.300529999999999520e-01
1.051730412046940843e+00 7.702510000000000190e-01
1.074752242739242414e+00 7.964259999999999673e-01
1.098277132661993116e+00 8.040199999999999569e-01
1.122316821060050707e+00 7.938340000000000396e-01
1.146883687643933891e+00 7.711510000000000309e-01
1.171988078537265165e+00 7.431799999999999518e-01
1.197640647923590596e+00 7.167919999999999847e-01
1.223856887071053556e+00 6.974599999999999689e-01
1.250645645814651763e+00 6.891180000000000083e-01
1.278020601692099190e+00 6.941270000000000495e-01
1.305994514823037633e+00 7.130980000000000096e-01
1.334582502555725414e+00 7.450759999999999605e-01
1.363795059788775355e+00 7.880139999999999922e-01
1.393646643680787944e+00 8.388029999999999653e-01
1.424152486855072564e+00 8.930829999999999602e-01
1.455324450032890349e+00 9.458779999999999966e-01
1.487179029585939727e+00 9.931130000000000235e-01
1.519733742648287977e+00 1.033009999999999984e+00
1.552997595959721311e+00 1.066300999999999943e+00
1.586991746055928854e+00 1.094923000000000091e+00
1.621728568046108876e+00 1.120004000000000000e+00
1.657226002538870313e+00 1.140522000000000036e+00
1.693503044918474698e+00 1.153521999999999936e+00
1.730570880722132499e+00 1.155639000000000083e+00
1.768449794594556090e+00 1.144894999999999996e+00
1.807161419272292235e+00 1.121779999999999999e+00
1.846718657952616915e+00 1.089252000000000109e+00
1.887141395956233536e+00 1.051951000000000080e+00
1.928446905999783967e+00 1.014947999999999961e+00
1.970660801980119947e+00 9.822650000000000547e-01
2.013794492272063863e+00 9.556400000000000450e-01
2.057875696076454375e+00 9.341369999999999951e-01
2.102921167794182811e+00 9.149279999999999635e-01
2.148947875120341244e+00 8.949840000000000018e-01
2.195987491655247315e+00 8.725910000000000055e-01
2.244054377925685628e+00 8.478580000000000005e-01
2.293172994677545429e+00 8.223599999999999799e-01
2.343369202504593130e+00 7.982029999999999959e-01
2.394664687077192156e+00 7.768760000000000110e-01
2.447081854888045971e+00 7.586049999999999738e-01
2.500643915808320461e+00 7.426439999999999708e-01
2.555381505681890708e+00 7.281180000000000430e-01
2.611313778074887182e+00 7.147090000000000387e-01
2.668474113132628389e+00 7.028499999999999748e-01
2.726883526623927079e+00 6.934949999999999726e-01
2.786570957242854973e+00 6.876849999999999907e-01
2.847566896465314912e+00 6.860009999999999719e-01
2.909895098281706893e+00 6.882249999999999757e-01
2.973597428432943612e+00 6.934310000000000196e-01
3.038682427299522981e+00 7.002089999999999703e-01
3.105194680180473732e+00 7.068680000000000518e-01
3.173162659491088000e+00 7.117599999999999483e-01
3.242626267866870915e+00 7.137019999999999476e-01
3.313595350363004233e+00 7.123180000000000067e-01
3.386134456627003964e+00 7.082030000000000269e-01
3.460243531939777739e+00 7.027930000000000010e-01
3.535992871438371044e+00 6.979940000000000033e-01
3.613382523514086397e+00 6.956780000000000186e-01
3.692475841976804229e+00 6.970819999999999794e-01
3.773300128292204736e+00 7.023209999999999731e-01
3.855897402281920350e+00 7.103019999999999889e-01
3.940296625529969621e+00 7.191750000000000087e-01
4.026542971266589888e+00 7.271940000000000071e-01
4.114684485993613805e+00 7.334889999999999466e-01
4.204754736656211023e+00 7.383089999999999931e-01
4.296787721499407020e+00 7.427009999999999446e-01
4.390837200929101236e+00 7.478080000000000283e-01
4.486960891648868355e+00 7.540810000000000013e-01
4.585157844058781684e+00 7.608700000000000463e-01
4.685530612914259763e+00 7.666279999999999761e-01
4.788102522851219511e+00 7.695140000000000313e-01
4.892894538551115780e+00 7.680879999999999930e-01
