# frequency(Hz) HVamp
2.000000000000000042e-02 1.402150999999999925e+00
2.043777802275861116e-02 1.490390000000000104e+00
2.088513892042544867e-02 1.574281000000000041e+00
2.134229185993890415e-02 1.645815000000000028e+00
2.180945121728470465e-02 1.701136999999999899e+00
2.228683671448790371e-02 1.743552999999999908e+00
2.277467095838639488e-02 1.784030999999999922e+00
2.327318386720582041e-02 1.836743999999999932e+00
2.378260869151607032e-02 1.911683000000000021e+00
2.430318396985316209e-02 2.008621999999999908e+00
2.483515418061077798e-02 2.113027000000000211e+00
2.537876860438217572e-02 2.197224999999999984e+00
2.593428185548686538e-02 2.232591999999999910e+00
2.650195524800330604e-02 2.207377999999999840e+00
2.708205410122367304e-02 2.135530999999999846e+00
2.767485116257483238e-02 2.047979000000000216e+00
2.828062296556268368e-02 1.973085999999999895e+00
2.889965516642458918e-02 1.923199000000000103e+00
2.953223712425469966e-02 1.895596000000000059e+00
3.017866585007221089e-02 1.880881999999999943e+00
3.083924344304486698e-02 1.869421999999999917e+00
3.151428172097601316e-02 1.853989000000000109e+00
3.220409460893151193e-02 1.831800000000000095e+00
3.290900679366954434e-02 1.806248999999999993e+00
3.362935008254323843e-02 1.785331999999999919e+00
3.436545982617606604e-02 1.777230000000000087e+00
3.511768145762538679e-02 1.786661999999999972e+00
3.588636982920923035e-02 1.813687000000000049e+00
3.667188287528685281e-02 1.854322000000000026e+00
3.747459035401046190e-02 1.902566999999999897e+00
3.829486888200696326e-02 1.953024000000000093e+00
3.913310161841203338e-02 2.002346000000000181e+00
3.998968266187323539e-02 2.049049999999999816e+00
4.086501260624340881e-02 2.093160000000000132e+00
4.175950326235679244e-02 2.136082000000000036e+00
4.267357455111880221e-02 2.179479000000000166e+00
4.360765235805109941e-02 2.223501000000000172e+00
4.456217573218773653e-02 2.266270000000000007e+00
4.553759360593897382e-02 2.304543999999999926e+00
4.653436264861679494e-02 2.334251000000000076e+00
4.755294901990994583e-02 2.350509999999999877e+00
4.859383060501651364e-02 2.347910000000000164e+00
4.965749734357217948e-02 2.321603000000000083e+00
5.074444382592605690e-02 2.268628999999999785e+00
5.185518671652646766e-02 2.189413000000000054e+00
5.299023919793973553e-02 2.088867000000000029e+00
5.415013688613103116e-02 1.975665000000000004e+00
5.533542508618215922e-02 1.859537999999999913e+00
5.654665825930951795e-02 1.748121000000000036e+00
5.778440269534190765e-02 1.645674000000000081e+00
5.904923992113619846e-02 1.554451999999999945e+00
6.034176368113722960e-02 1.476718999999999893e+00
6.166257977365023624e-02 1.415103999999999917e+00
6.301230579922413588e-02 1.371555000000000080e+00
6.439157495481964699e-02 1.346044000000000018e+00
6.580103648476649802e-02 1.335854000000000097e+00
6.724135160227064090e-02 1.336076999999999959e+00
6.871319291929786632e-02 1.341124999999999901e+00
7.021724865648072689e-02 1.346276000000000028e+00
7.175422799231455373e-02 1.348656999999999995e+00
7.332484622679873165e-02 1.347469000000000028e+00
7.492985067379918929e-02 1.343483999999999901e+00
7.656998328017844413e-02 1.338154999999999983e+00
7.824601847091161577e-02 1.332754999999999912e+00
7.995873489609482687e-02 1.327835000000000099e+00
8.170894587125514252e-02 1.323126000000000024e+00
8.349746848200181870e-02 1.317827999999999999e+00
8.532513483931059017e-02 1.310921000000000003e+00
8.719280666320453066e-02 1.301217999999999986e+00
8.910136197668877545e-02 1.287568000000000046e+00
9.105169441740208758e-02 1.269706000000000001e+00
9.304472101470850909e-02 1.249115999999999893e+00
9.508136492722282784e-02 1.228620000000000045e+00
9.716259003207046441e-02 1.210596999999999923e+00
9.928937600698042876e-02 1.195435000000000025e+00
1.014627169666056788e-01 1.181454000000000004e+00
1.036836198025345573e-01 1.166026000000000007e+00
1.059531470945422049e-01 1.146986000000000061e+00
1.082723426204657002e-01 1.123572999999999933e+00
1.106423073612318730e-01 1.096797000000000022e+00
1.130641434367904014e-01 1.069137999999999922e+00
1.155389888050807612e-01 1.043589000000000100e+00
1.180680199308263012e-01 1.022632999999999903e+00
1.206523964642573915e-01 1.007762999999999964e+00
1.232933427266421494e-01 9.995969999999999578e-01
1.259921091142061633e-01 9.981210000000000360e-01
1.287499385219043613e-01 1.002483000000000013e+00
1.315681276210838024e-01 1.010490000000000110e+00
1.344480149355610776e-01 1.018698000000000103e+00
1.373909270603933253e-01 1.023454000000000086e+00
1.403982677661723133e-01 1.022432000000000007e+00
1.434714465996406174e-01 1.015744999999999898e+00
1.466118729226930095e-01 1.005934000000000106e+00
1.498210387691902012e-01 9.966979999999999729e-01
1.531004603883944215e-01 9.911739999999999995e-01
1.564516759885790365e-01 9.906810000000000338e-01
1.598762174374112610e-01 9.942239999999999966e-01
1.633757347823671657e-01 9.988280000000000491e-01
1.669518482487836186e-01 1.001074000000000019e+00
1.706062493069121222e-01 9.993149999999999533e-01
1.743406480276755433e-01 9.946230000000000349e-01
1.781567686922972404e-01 9.893520000000000092e-01
1.820564109071452219e-01 9.848519999999999497e-01
1.860414236112984399e-01 9.803929999999999589e-01
1.901136708649468487e-01 9.736240000000000450e-01
1.942750635716576912e-01 9.620880000000000543e-01
1.985275213739692568e-01 9.452000000000000401e-01
2.028730886819132551e-01 9.253959999999999964e-01
2.073137384534022021e-01 9.071569999999999911e-01
2.118516148918974384e-01 8.943159999999999998e-01
2.164888283105038391e-01 8.875809999999999533e-01
2.212275340673810209e-01 8.843020000000000325e-01
2.260699835805370650e-01 8.808080000000000354e-01
2.310183752015635139e-01 8.753300000000000525e-01
2.360751096568884100e-01 8.690400000000000347e-01
2.412425341466744866e-01 8.648979999999999446e-01
2.465230998307618715e-01 8.659559999999999480e-01
2.519191833183147544e-01 8.743720000000000381e-01
2.574334553825345373e-01 8.909730000000000150e-01
2.630683822583526066e-01 9.150220000000000020e-01
2.688266710467492326e-01 9.445080000000000142e-01
2.747110108843249798e-01 9.772929999999999673e-01
2.807241335168895180e-01 1.012534999999999963e+00
2.868688920234096495e-01 1.050902000000000003e+00
2.931481028187655768e-01 1.093191000000000024e+00
2.995647922697904919e-01 1.139013000000000053e+00
3.061219491886544297e-01 1.187092000000000036e+00
3.128225983045015424e-01 1.236450999999999967e+00
3.196699982673885665e-01 1.287155999999999967e+00
3.266672524899394969e-01 1.340378999999999987e+00
3.338175913859038335e-01 1.397999999999999909e+00
3.411245032800827026e-01 1.461608999999999936e+00
3.485912903071751723e-01 1.530858999999999970e+00
3.562216425308692980e-01 1.602012999999999909e+00
3.640189144227933826e-01 1.668493999999999922e+00
3.719868599361595973e-01 1.724123999999999990e+00
3.801292743636255911e-01 1.767095000000000082e+00
3.884498326752345854e-01 1.801371000000000056e+00
3.969526737144291051e-01 1.834421000000000079e+00
4.056414997215270768e-01 1.873361999999999972e+00
4.145204868460213854e-01 1.922287000000000079e+00
4.235940173275368759e-01 1.981794999999999973e+00
4.328659535344370757e-01 2.049716000000000093e+00
4.423408678727827614e-01 2.121766000000000041e+00
4.520233696082087693e-01 2.191948000000000008e+00
4.619176604055267865e-01 2.253584000000000032e+00
4.720285331807737017e-01 2.301757999999999971e+00
4.823605567984378673e-01 2.336457999999999924e+00
4.929189725005434508e-01 2.363792000000000115e+00
5.037085542305222985e-01 2.393315999999999999e+00
5.147340034826902722e-01 2.432475000000000165e+00
5.260010193899755659e-01 2.482064999999999966e+00
5.375147682182568332e-01 2.536386999999999947e+00
5.492803329078241870e-01 2.587826000000000182e+00
5.613033013614973088e-01 2.631707000000000019e+00
5.735898580135665448e-01 2.667736000000000107e+00
5.861448258358571417e-01 2.698367999999999878e+00
5.989749143316128732e-01 2.727037000000000155e+00
6.120861303119130570e-01 2.757734000000000130e+00
6.254839682204105245e-01 2.794087999999999905e+00
6.391749019026319312e-01 2.836164000000000129e+00
6.531657310067570110e-01 2.877393999999999785e+00
6.674631727194452191e-01 2.905749000000000137e+00
6.820728740300071591e-01 2.909882000000000080e+00
6.970030263871405118e-01 2.885979999999999990e+00
7.122593364734473020e-01 2.839595000000000091e+00
7.278502433567288765e-01 2.781276000000000082e+00
7.437819826252529687e-01 2.720104000000000077e+00
7.600626595656545526e-01 2.659788999999999959e+00
7.766996323880640540e-01 2.599083999999999950e+00
7.937005574159013976e-01 2.534694000000000003e+00
8.110740810733430006e-01 2.463620999999999839e+00
8.288272757110509703e-01 2.384018000000000193e+00
8.469695429752346350e-01 2.296110000000000095e+00
8.655086161382736787e-01 2.203625000000000167e+00
8.844540397880493732e-01 2.113926000000000194e+00
9.038134601323364326e-01 2.035611999999999977e+00
9.235972635660274488e-01 1.974892000000000092e+00
9.438138195107080852e-01 1.933108999999999966e+00
9.644726842046378312e-01 1.906913999999999998e+00
9.855838648094324972e-01 1.890852999999999895e+00
1.007156856623164121e+00 1.880540000000000100e+00
1.029202594413900052e+00 1.874265999999999988e+00
1.051730412046940843e+00 1.872135000000000105e+00
1.074752242739242414e+00 1.874095999999999984e+00
1.098277132661993116e+00 1.879409000000000107e+00
1.122316821060050707e+00 1.888072999999999890e+00
1.146883687643933891e+00 1.901875999999999900e+00
1.171988078537265165e+00 1.923197000000000045e+00
1.197640647923590596e+00 1.952625999999999973e+00
1.223856887071053556e+00 1.987665999999999933e+00
1.250645645814651763e+00 2.023804000000000158e+00
1.278020601692099190e+00 2.057370999999999839e+00
1.305994514823037633e+00 2.087915000000000187e+00
1.334582502555725414e+00 2.117875000000000174e+00
1.363795059788775355e+00 2.149748000000000214e+00
1.393646643680787944e+00 2.183317000000000174e+00
1.424152486855072564e+00 2.215266000000000179e+00
1.455324450032890349e+00 2.241337000000000135e+00
1.487179029585939727e+00 2.258954999999999824e+00
1.519733742648287977e+00 2.268100000000000005e+00
1.552997595959721311e+00 2.270144000000000162e+00
1.586991746055928854e+00 2.266331999999999791e+00
1.621728568046108876e+00 2.257128999999999941e+00
1.657226002538870313e+00 2.242189000000000210e+00
1.693503044918474698e+00 2.220701000000000036e+00
1.730570880722132499e+00 2.192533000000000065e+00
1.768449794594556090e+00 2.159727000000000174e+00
1.807161419272292235e+00 2.126548000000000105e+00
1.846718657952616915e+00 2.097491000000000216e+00
1.887141395956233536e+00 2.074899999999999967e+00
1.928446905999783967e+00 2.057837999999999834e+00
1.970660801980119947e+00 2.042818000000000023e+00
2.013794492272063863e+00 2.026027000000000022e+00
2.057875696076454375e+00 2.005729000000000095e+00
2.102921167794182811e+00 1.982960999999999974e+00
2.148947875120341244e+00 1.959983999999999948e+00
2.195987491655247315e+00 1.938298999999999994e+00
2.244054377925685628e+00 1.918034999999999934e+00
2.293172994677545429e+00 1.898433000000000037e+00
2.343369202504593130e+00 1.878295999999999966e+00
2.394664687077192156e+00 1.856300999999999979e+00
2.447081854888045971e+00 1.831669999999999909e+00
2.500643915808320461e+00 1.804750000000000076e+00
2.555381505681890708e+00 1.776969000000000021e+00
2.611313778074887182e+00 1.750286999999999926e+00
2.668474113132628389e+00 1.726377000000000050e+00
2.726883526623927079e+00 1.705737999999999976e+00
2.786570957242854973e+00 1.687284000000000006e+00
2.847566896465314912e+00 1.669057999999999931e+00
2.909895098281706893e+00 1.649729999999999919e+00
2.973597428432943612e+00 1.629748999999999892e+00
3.038682427299522981e+00 1.611156999999999950e+00
3.105194680180473732e+00 1.596430000000000016e+00
3.173162659491088000e+00 1.587388999999999939e+00
3.242626267866870915e+00 1.584681000000000006e+00
3.313595350363004233e+00 1.587692000000000103e+00
3.386134456627003964e+00 1.594875000000000043e+00
3.460243531939777739e+00 1.604424999999999990e+00
3.535992871438371044e+00 1.614994999999999958e+00
3.613382523514086397e+00 1.625658999999999965e+00
3.692475841976804229e+00 1.634951000000000043e+00
3.773300128292204736e+00 1.640292000000000083e+00
3.855897402281920350e+00 1.638884000000000007e+00
3.940296625529969621e+00 1.629348000000000019e+00
4.026542971266589888e+00 1.612684999999999924e+00
4.114684485993613805e+00 1.592014999999999958e+00
4.204754736656211023e+00 1.571358000000000033e+00
4.296787721499407020e+00 1.554246000000000016e+00
4.390837200929101236e+00 1.542974999999999985e+00
4.486960891648868355e+00 1.538583999999999952e+00
4.585157844058781684e+00 1.541288999999999909e+00
4.685530612914259763e+00 1.551026999999999934e+00
4.788102522851219511e+00 1.567771999999999943e+00
4.892894538551115780e+00 1.591436999999999991e+00
