# frequency(Hz) HVamp
2.000000000000000042e-02 8.701539999999999830e-01
2.043777802275861116e-02 8.448339999999999739e-01
2.088513892042544867e-02 8.360969999999999791e-01
2.134229185993890415e-02 8.429149999999999698e-01
2.180945121728470465e-02 8.608510000000000328e-01
2.228683671448790371e-02 8.825380000000000447e-01
2.277467095838639488e-02 9.006539999999999546e-01
2.327318386720582041e-02 9.118540000000000534e-01
2.378260869151607032e-02 9.179190000000000405e-01
2.430318396985316209e-02 9.231639999999999846e-01
2.483515418061077798e-02 9.314529999999999754e-01
2.537876860438217572e-02 9.449469999999999814e-01
2.593428185548686538e-02 9.644589999999999552e-01
2.650195524800330604e-02 9.903929999999999678e-01
2.708205410122367304e-02 1.023320999999999925e+00
2.767485116257483238e-02 1.063755000000000006e+00
2.828062296556268368e-02 1.111563000000000079e+00
2.889965516642458918e-02 1.165759999999999907e+00
2.953223712425469966e-02 1.224566000000000043e+00
3.017866585007221089e-02 1.285350999999999910e+00
3.083924344304486698e-02 1.344694000000000056e+00
3.151428172097601316e-02 1.398784999999999945e+00
3.220409460893151193e-02 1.444304999999999950e+00
3.290900679366954434e-02 1.480008999999999908e+00
3.362935008254323843e-02 1.508426000000000045e+00
3.436545982617606604e-02 1.535848000000000102e+00
3.511768145762538679e-02 1.569390000000000063e+00
3.588636982920923035e-02 1.612864999999999993e+00
3.667188287528685281e-02 1.664462000000000108e+00
3.747459035401046190e-02 1.717662000000000022e+00
3.829486888200696326e-02 1.764356000000000035e+00
3.913310161841203338e-02 1.797506000000000048e+00
3.998968266187323539e-02 1.811892999999999976e+00
4.086501260624340881e-02 1.804281999999999941e+00
4.175950326235679244e-02 1.774381999999999904e+00
4.267357455111880221e-02 1.726129000000000024e+00
4.360765235805109941e-02 1.667907000000000028e+00
4.456217573218773653e-02 1.610670999999999964e+00
4.553759360593897382e-02 1.564284000000000008e+00
4.653436264861679494e-02 1.534067999999999987e+00
4.755294901990994583e-02 1.519824999999999982e+00
4.859383060501651364e-02 1.517276000000000069e+00
4.965749734357217948e-02 1.520710999999999924e+00
5.074444382592605690e-02 1.525762999999999980e+00
5.185518671652646766e-02 1.529654000000000069e+00
5.299023919793973553e-02 1.529422000000000059e+00
5.415013688613103116e-02 1.521586000000000105e+00
5.533542508618215922e-02 1.503867999999999983e+00
5.654665825930951795e-02 1.476849000000000078e+00
5.778440269534190765e-02 1.443837999999999955e+00
5.904923992113619846e-02 1.409350000000000103e+00
6.034176368113722960e-02 1.377520999999999995e+00
6.166257977365023624e-02 1.351212999999999997e+00
6.301230579922413588e-02 1.331817000000000029e+00
6.439157495481964699e-02 1.319661999999999891e+00
6.580103648476649802e-02 1.314267000000000074e+00
6.724135160227064090e-02 1.314351000000000047e+00
6.871319291929786632e-02 1.318341999999999903e+00
7.021724865648072689e-02 1.324934000000000056e+00
7.175422799231455373e-02 1.332904000000000089e+00
7.332484622679873165e-02 1.340470000000000050e+00
7.492985067379918929e-02 1.345240999999999909e+00
7.656998328017844413e-02 1.345283000000000007e+00
7.824601847091161577e-02 1.340289000000000064e+00
7.995873489609482687e-02 1.331598999999999977e+00
8.170894587125514252e-02 1.321390000000000065e+00
8.349746848200181870e-02 1.311798999999999937e+00
8.532513483931059017e-02 1.304075000000000095e+00
8.719280666320453066e-02 1.297932000000000086e+00
8.910136197668877545e-02 1.291643000000000097e+00
9.105169441740208758e-02 1.283133000000000079e+00
9.304472101470850909e-02 1.271473000000000075e+00
9.508136492722282784e-02 1.257978000000000041e+00
9.716259003207046441e-02 1.246248999999999940e+00
9.928937600698042876e-02 1.240922999999999998e+00
1.014627169666056788e-01 1.245687999999999906e+00
1.036836198025345573e-01 1.261487000000000025e+00
1.059531470945422049e-01 1.285700000000000065e+00
1.082723426204657002e-01 1.312926000000000037e+00
1.106423073612318730e-01 1.337215000000000042e+00
1.130641434367904014e-01 1.354573000000000027e+00
1.155389888050807612e-01 1.364279999999999937e+00
1.180680199308263012e-01 1.368355999999999906e+00
1.206523964642573915e-01 1.370030999999999999e+00
1.232933427266421494e-01 1.372705999999999982e+00
1.259921091142061633e-01 1.379399999999999959e+00
1.287499385219043613e-01 1.391612999999999989e+00
1.315681276210838024e-01 1.407778999999999892e+00
1.344480149355610776e-01 1.423089000000000048e+00
1.373909270603933253e-01 1.431799999999999962e+00
1.403982677661723133e-01 1.430819999999999981e+00
1.434714465996406174e-01 1.421553999999999984e+00
1.466118729226930095e-01 1.408255999999999952e+00
1.498210387691902012e-01 1.394776999999999934e+00
1.531004603883944215e-01 1.382784000000000013e+00
1.564516759885790365e-01 1.372608999999999968e+00
1.598762174374112610e-01 1.365278999999999909e+00
1.633757347823671657e-01 1.363004000000000104e+00
1.669518482487836186e-01 1.367513999999999896e+00
1.706062493069121222e-01 1.378401999999999905e+00
1.743406480276755433e-01 1.393254999999999910e+00
1.781567686922972404e-01 1.409280000000000088e+00
1.820564109071452219e-01 1.424800000000000066e+00
1.860414236112984399e-01 1.439427999999999930e+00
1.901136708649468487e-01 1.453197000000000072e+00
1.942750635716576912e-01 1.465781000000000001e+00
1.985275213739692568e-01 1.476445999999999925e+00
2.028730886819132551e-01 1.484269000000000061e+00
2.073137384534022021e-01 1.488174000000000108e+00
2.118516148918974384e-01 1.486909000000000036e+00
2.164888283105038391e-01 1.479176000000000046e+00
2.212275340673810209e-01 1.463891999999999971e+00
2.260699835805370650e-01 1.440577999999999914e+00
2.310183752015635139e-01 1.410171999999999981e+00
2.360751096568884100e-01 1.375842999999999927e+00
2.412425341466744866e-01 1.342759000000000036e+00
2.465230998307618715e-01 1.316993000000000080e+00
2.519191833183147544e-01 1.304321000000000064e+00
2.574334553825345373e-01 1.308863000000000110e+00
2.630683822583526066e-01 1.331429999999999891e+00
2.688266710467492326e-01 1.368586000000000080e+00
2.747110108843249798e-01 1.413802000000000003e+00
2.807241335168895180e-01 1.460498000000000074e+00
2.868688920234096495e-01 1.505009000000000041e+00
2.931481028187655768e-01 1.547863999999999907e+00
2.995647922697904919e-01 1.592524000000000051e+00
3.061219491886544297e-01 1.642131999999999925e+00
3.128225983045015424e-01 1.696781000000000095e+00
3.196699982673885665e-01 1.753632000000000080e+00
3.266672524899394969e-01 1.809590999999999950e+00
3.338175913859038335e-01 1.863993999999999929e+00
3.411245032800827026e-01 1.919113000000000069e+00
3.485912903071751723e-01 1.978588999999999931e+00
3.562216425308692980e-01 2.045173000000000130e+00
3.640189144227933826e-01 2.118749000000000215e+00
3.719868599361595973e-01 2.195427000000000017e+00
3.801292743636255911e-01 2.268632999999999900e+00
3.884498326752345854e-01 2.331767999999999841e+00
3.969526737144291051e-01 2.380675000000000097e+00
4.056414997215270768e-01 2.414941999999999922e+00
4.145204868460213854e-01 2.438137000000000221e+00
4.235940173275368759e-01 2.456825999999999954e+00
4.328659535344370757e-01 2.477812000000000126e+00
4.423408678727827614e-01 2.504586000000000201e+00
4.520233696082087693e-01 2.535369000000000206e+00
4.619176604055267865e-01 2.564065999999999956e+00
4.720285331807737017e-01 2.583512999999999948e+00
4.823605567984378673e-01 2.589547000000000043e+00
4.929189725005434508e-01 2.583661999999999903e+00
5.037085542305222985e-01 2.572172999999999821e+00
5.147340034826902722e-01 2.562073999999999963e+00
5.260010193899755659e-01 2.556433000000000177e+00
5.375147682182568332e-01 2.552874000000000088e+00
5.492803329078241870e-01 2.546136000000000177e+00
5.613033013614973088e-01 2.532486000000000015e+00
5.735898580135665448e-01 2.512718000000000007e+00
5.861448258358571417e-01 2.491614999999999913e+00
5.989749143316128732e-01 2.474380000000000024e+00
6.120861303119130570e-01 2.462749000000000077e+00
6.254839682204105245e-01 2.453685999999999812e+00
6.391749019026319312e-01 2.441596999999999795e+00
6.531657310067570110e-01 2.422492000000000090e+00
6.674631727194452191e-01 2.396945999999999799e+00
6.820728740300071591e-01 2.369245999999999963e+00
6.970030263871405118e-01 2.343475999999999893e+00
7.122593364734473020e-01 2.320333000000000201e+00
7.278502433567288765e-01 2.297197000000000155e+00
7.437819826252529687e-01 2.270522999999999847e+00
7.600626595656545526e-01 2.238145999999999969e+00
7.766996323880640540e-01 2.200134999999999952e+00
7.937005574159013976e-01 2.158434999999999881e+00
8.110740810733430006e-01 2.116207000000000171e+00
8.288272757110509703e-01 2.077148999999999912e+00
8.469695429752346350e-01 2.044585000000000097e+00
8.655086161382736787e-01 2.020455000000000112e+00
8.844540397880493732e-01 2.004643999999999870e+00
9.038134601323364326e-01 1.995063999999999949e+00
9.235972635660274488e-01 1.988798000000000066e+00
9.438138195107080852e-01 1.983929000000000054e+00
9.644726842046378312e-01 1.980512000000000050e+00
9.855838648094324972e-01 1.979540000000000077e+00
1.007156856623164121e+00 1.980704000000000020e+00
1.029202594413900052e+00 1.980801000000000034e+00
1.051730412046940843e+00 1.974253000000000036e+00
1.074752242739242414e+00 1.955885000000000096e+00
1.098277132661993116e+00 1.924503999999999992e+00
1.122316821060050707e+00 1.884684999999999944e+00
1.146883687643933891e+00 1.844853999999999994e+00
1.171988078537265165e+00 1.812834000000000056e+00
1.197640647923590596e+00 1.792327999999999921e+00
1.223856887071053556e+00 1.782583999999999946e+00
1.250645645814651763e+00 1.780553999999999970e+00
1.278020601692099190e+00 1.783239999999999936e+00
1.305994514823037633e+00 1.788716999999999890e+00
1.334582502555725414e+00 1.795705000000000107e+00
1.363795059788775355e+00 1.802669000000000077e+00
1.393646643680787944e+00 1.807644000000000029e+00
1.424152486855072564e+00 1.809369000000000005e+00
1.455324450032890349e+00 1.808758000000000088e+00
1.487179029585939727e+00 1.808840000000000003e+00
1.519733742648287977e+00 1.812580000000000080e+00
1.552997595959721311e+00 1.820073000000000052e+00
1.586991746055928854e+00 1.827242999999999951e+00
1.621728568046108876e+00 1.827447999999999961e+00
1.657226002538870313e+00 1.815490000000000048e+00
1.693503044918474698e+00 1.791406999999999972e+00
1.730570880722132499e+00 1.760977000000000015e+00
1.768449794594556090e+00 1.732191000000000036e+00
1.807161419272292235e+00 1.710450000000000026e+00
1.846718657952616915e+00 1.695972999999999953e+00
1.887141395956233536e+00 1.684701999999999922e+00
1.928446905999783967e+00 1.671512000000000109e+00
1.970660801980119947e+00 1.653537000000000035e+00
2.013794492272063863e+00 1.631628000000000078e+00
2.057875696076454375e+00 1.609290000000000109e+00
2.102921167794182811e+00 1.590254999999999974e+00
2.148947875120341244e+00 1.576345000000000107e+00
2.195987491655247315e+00 1.566731000000000096e+00
2.244054377925685628e+00 1.558894000000000002e+00
2.293172994677545429e+00 1.550448000000000048e+00
2.343369202504593130e+00 1.540454999999999908e+00
2.394664687077192156e+00 1.529443000000000108e+00
2.447081854888045971e+00 1.518450000000000077e+00
2.500643915808320461e+00 1.508243999999999918e+00
2.555381505681890708e+00 1.499343000000000092e+00
2.611313778074887182e+00 1.492210999999999954e+00
2.668474113132628389e+00 1.487292000000000058e+00
2.726883526623927079e+00 1.484973000000000098e+00
2.786570957242854973e+00 1.485346999999999973e+00
2.847566896465314912e+00 1.487881000000000009e+00
2.909895098281706893e+00 1.491519000000000039e+00
2.973597428432943612e+00 1.495538000000000034e+00
3.038682427299522981e+00 1.500302999999999942e+00
3.105194680180473732e+00 1.506977999999999929e+00
3.173162659491088000e+00 1.516434999999999977e+00
3.242626267866870915e+00 1.528232999999999953e+00
3.313595350363004233e+00 1.540300999999999920e+00
3.386134456627003964e+00 1.549433999999999978e+00
3.460243531939777739e+00 1.552619999999999889e+00
3.535992871438371044e+00 1.548621000000000025e+00
3.613382523514086397e+00 1.538605000000000000e+00
3.692475841976804229e+00 1.525209999999999955e+00
3.773300128292204736e+00 1.510706000000000104e+00
3.855897402281920350e+00 1.495926000000000089e+00
3.940296625529969621e+00 1.480766999999999944e+00
4.026542971266589888e+00 1.465333999999999914e+00
4.114684485993613805e+00 1.450661999999999896e+00
4.204754736656211023e+00 1.438781000000000088e+00
4.296787721499407020e+00 1.432258000000000031e+00
4.390837200929101236e+00 1.433324000000000042e+00
4.486960891648868355e+00 1.443035999999999985e+00
4.585157844058781684e+00 1.460949999999999971e+00
4.685530612914259763e+00 1.485376999999999947e+00
4.788102522851219511e+00 1.514124999999999943e+00
4.892894538551115780e+00 1.545271999999999979e+00
