# frequency(Hz) HVamp
2.000000000000000042e-02 6.330869999999999553e-01
2.043777802275861116e-02 6.223919999999999453e-01
2.088513892042544867e-02 6.276549999999999629e-01
2.134229185993890415e-02 6.492050000000000320e-01
2.180945121728470465e-02 6.849779999999999758e-01
2.228683671448790371e-02 7.312349999999999683e-01
2.277467095838639488e-02 7.830690000000000150e-01
2.327318386720582041e-02 8.351560000000000095e-01
2.378260869151607032e-02 8.826650000000000329e-01
2.430318396985316209e-02 9.226689999999999614e-01
2.483515418061077798e-02 9.566109999999999891e-01
2.537876860438217572e-02 9.913250000000000117e-01
2.593428185548686538e-02 1.035711000000000048e+00
2.650195524800330604e-02 1.094986999999999933e+00
2.708205410122367304e-02 1.167262000000000022e+00
2.767485116257483238e-02 1.244471000000000105e+00
2.828062296556268368e-02 1.316178999999999988e+00
2.889965516642458918e-02 1.373625000000000096e+00
2.953223712425469966e-02 1.412385999999999919e+00
3.017866585007221089e-02 1.433046000000000042e+00
3.083924344304486698e-02 1.439840000000000009e+00
3.151428172097601316e-02 1.438288999999999929e+00
3.220409460893151193e-02 1.433052999999999910e+00
3.290900679366954434e-02 1.426682999999999923e+00
3.362935008254323843e-02 1.419696000000000069e+00
3.436545982617606604e-02 1.411489999999999911e+00
3.511768145762538679e-02 1.400935999999999959e+00
3.588636982920923035e-02 1.386695999999999929e+00
3.667188287528685281e-02 1.368033999999999972e+00
3.747459035401046190e-02 1.345552999999999999e+00
3.829486888200696326e-02 1.320964999999999945e+00
3.913310161841203338e-02 1.296235999999999944e+00
3.998968266187323539e-02 1.272718000000000016e+00
4.086501260624340881e-02 1.250726000000000004e+00
4.175950326235679244e-02 1.229794999999999972e+00
4.267357455111880221e-02 1.209559000000000051e+00
4.360765235805109941e-02 1.190512000000000015e+00
4.456217573218773653e-02 1.174034999999999940e+00
4.553759360593897382e-02 1.161886999999999892e+00
4.653436264861679494e-02 1.155346999999999902e+00
4.755294901990994583e-02 1.154385999999999912e+00
4.859383060501651364e-02 1.157105999999999968e+00
4.965749734357217948e-02 1.159782000000000091e+00
5.074444382592605690e-02 1.158979999999999899e+00
5.185518671652646766e-02 1.153833000000000109e+00
5.299023919793973553e-02 1.146014000000000088e+00
5.415013688613103116e-02 1.138049000000000088e+00
5.533542508618215922e-02 1.131653999999999938e+00
5.654665825930951795e-02 1.127437999999999940e+00
5.778440269534190765e-02 1.125577000000000050e+00
5.904923992113619846e-02 1.126201000000000008e+00
6.034176368113722960e-02 1.128997999999999946e+00
6.166257977365023624e-02 1.132555999999999896e+00
6.301230579922413588e-02 1.134616999999999987e+00
6.439157495481964699e-02 1.133682999999999996e+00
6.580103648476649802e-02 1.130438000000000054e+00
6.724135160227064090e-02 1.127785999999999955e+00
6.871319291929786632e-02 1.129669000000000034e+00
7.021724865648072689e-02 1.139420000000000099e+00
7.175422799231455373e-02 1.158309000000000033e+00
7.332484622679873165e-02 1.184792000000000067e+00
7.492985067379918929e-02 1.214747000000000021e+00
7.656998328017844413e-02 1.242893000000000026e+00
7.824601847091161577e-02 1.264898000000000078e+00
7.995873489609482687e-02 1.278734000000000037e+00
8.170894587125514252e-02 1.284559999999999924e+00
8.349746848200181870e-02 1.284019000000000021e+00
8.532513483931059017e-02 1.279824000000000073e+00
8.719280666320453066e-02 1.275428999999999924e+00
8.910136197668877545e-02 1.274367000000000028e+00
9.105169441740208758e-02 1.279419000000000084e+00
9.304472101470850909e-02 1.291914000000000007e+00
9.508136492722282784e-02 1.311514999999999986e+00
9.716259003207046441e-02 1.336692999999999909e+00
9.928937600698042876e-02 1.365315999999999974e+00
1.014627169666056788e-01 1.395068999999999892e+00
1.036836198025345573e-01 1.424039999999999973e+00
1.059531470945422049e-01 1.451175000000000104e+00
1.082723426204657002e-01 1.475751000000000035e+00
1.106423073612318730e-01 1.496534000000000031e+00
1.130641434367904014e-01 1.511759000000000075e+00
1.155389888050807612e-01 1.519595999999999947e+00
1.180680199308263012e-01 1.518388000000000071e+00
1.206523964642573915e-01 1.506925000000000070e+00
1.232933427266421494e-01 1.485443999999999987e+00
1.259921091142061633e-01 1.456771999999999956e+00
1.287499385219043613e-01 1.426258999999999943e+00
1.315681276210838024e-01 1.400014000000000092e+00
1.344480149355610776e-01 1.382382999999999917e+00
1.373909270603933253e-01 1.374303000000000052e+00
1.403982677661723133e-01 1.373383999999999938e+00
1.434714465996406174e-01 1.375191000000000052e+00
1.466118729226930095e-01 1.374965999999999910e+00
1.498210387691902012e-01 1.369375000000000009e+00
1.531004603883944215e-01 1.357742999999999922e+00
1.564516759885790365e-01 1.342311999999999950e+00
1.598762174374112610e-01 1.327353999999999923e+00
1.633757347823671657e-01 1.317107999999999945e+00
1.669518482487836186e-01 1.313382999999999967e+00
1.706062493069121222e-01 1.314462000000000019e+00
1.743406480276755433e-01 1.316027999999999976e+00
1.781567686922972404e-01 1.313223999999999947e+00
1.820564109071452219e-01 1.302583999999999964e+00
1.860414236112984399e-01 1.283760000000000012e+00
1.901136708649468487e-01 1.260532999999999904e+00
1.942750635716576912e-01 1.239394000000000107e+00
1.985275213739692568e-01 1.225988999999999995e+00
2.028730886819132551e-01 1.222000999999999893e+00
2.073137384534022021e-01 1.224785999999999930e+00
2.118516148918974384e-01 1.230137000000000036e+00
2.164888283105038391e-01 1.235983999999999972e+00
2.212275340673810209e-01 1.243819000000000008e+00
2.260699835805370650e-01 1.256783999999999901e+00
2.310183752015635139e-01 1.276542999999999983e+00
2.360751096568884100e-01 1.301840000000000108e+00
2.412425341466744866e-01 1.329709999999999948e+00
2.465230998307618715e-01 1.357680999999999916e+00
2.519191833183147544e-01 1.384789000000000048e+00
2.574334553825345373e-01 1.411110000000000086e+00
2.630683822583526066e-01 1.436922999999999950e+00
2.688266710467492326e-01 1.462253000000000025e+00
2.747110108843249798e-01 1.486712000000000033e+00
2.807241335168895180e-01 1.509516000000000080e+00
2.868688920234096495e-01 1.530205999999999955e+00
2.931481028187655768e-01 1.549757999999999969e+00
2.995647922697904919e-01 1.570713000000000026e+00
3.061219491886544297e-01 1.595663999999999971e+00
3.128225983045015424e-01 1.625286999999999926e+00
3.196699982673885665e-01 1.657775999999999916e+00
3.266672524899394969e-01 1.690436000000000050e+00
3.338175913859038335e-01 1.722391999999999923e+00
3.411245032800827026e-01 1.755889999999999951e+00
3.485912903071751723e-01 1.794939999999999980e+00
3.562216425308692980e-01 1.842460999999999904e+00
3.640189144227933826e-01 1.897890999999999995e+00
3.719868599361595973e-01 1.956949000000000050e+00
3.801292743636255911e-01 2.013860999999999901e+00
3.884498326752345854e-01 2.064357999999999915e+00
3.969526737144291051e-01 2.107420999999999989e+00
4.056414997215270768e-01 2.144839999999999858e+00
4.145204868460213854e-01 2.179018999999999817e+00
4.235940173275368759e-01 2.210844999999999949e+00
4.328659535344370757e-01 2.239040999999999837e+00
4.423408678727827614e-01 2.261121000000000159e+00
4.520233696082087693e-01 2.275246000000000102e+00
4.619176604055267865e-01 2.282080999999999804e+00
4.720285331807737017e-01 2.285200999999999816e+00
4.823605567984378673e-01 2.289521000000000139e+00
4.929189725005434508e-01 2.299021999999999899e+00
5.037085542305222985e-01 2.315030999999999839e+00
5.147340034826902722e-01 2.335199999999999942e+00
5.260010193899755659e-01 2.353679000000000077e+00
5.375147682182568332e-01 2.363185999999999787e+00
5.492803329078241870e-01 2.358350999999999864e+00
5.613033013614973088e-01 2.338338999999999945e+00
5.735898580135665448e-01 2.306948000000000221e+00
5.861448258358571417e-01 2.270150000000000112e+00
5.989749143316128732e-01 2.233162000000000091e+00
6.120861303119130570e-01 2.199167999999999790e+00
6.254839682204105245e-01 2.169836999999999794e+00
6.391749019026319312e-01 2.146707999999999839e+00
6.531657310067570110e-01 2.132134999999999891e+00
6.674631727194452191e-01 2.128982000000000152e+00
6.820728740300071591e-01 2.139327999999999896e+00
6.970030263871405118e-01 2.163184000000000218e+00
7.122593364734473020e-01 2.198020999999999781e+00
7.278502433567288765e-01 2.239317999999999920e+00
7.437819826252529687e-01 2.281868999999999925e+00
7.600626595656545526e-01 2.321188999999999947e+00
7.766996323880640540e-01 2.354404000000000163e+00
7.937005574159013976e-01 2.380609999999999893e+00
8.110740810733430006e-01 2.400723999999999858e+00
8.288272757110509703e-01 2.416637000000000146e+00
8.469695429752346350e-01 2.429701999999999806e+00
8.655086161382736787e-01 2.439582999999999835e+00
8.844540397880493732e-01 2.444758000000000209e+00
9.038134601323364326e-01 2.444815000000000182e+00
9.235972635660274488e-01 2.442734000000000183e+00
9.438138195107080852e-01 2.445101000000000191e+00
9.644726842046378312e-01 2.459680999999999784e+00
9.855838648094324972e-01 2.491630999999999929e+00
1.007156856623164121e+00 2.540614999999999846e+00
1.029202594413900052e+00 2.600353999999999832e+00
1.051730412046940843e+00 2.660973999999999950e+00
1.074752242739242414e+00 2.713114000000000026e+00
1.098277132661993116e+00 2.751951000000000036e+00
1.122316821060050707e+00 2.779376000000000069e+00
1.146883687643933891e+00 2.803075000000000205e+00
1.171988078537265165e+00 2.832135000000000069e+00
1.197640647923590596e+00 2.871173999999999893e+00
1.223856887071053556e+00 2.916703000000000046e+00
1.250645645814651763e+00 2.958212000000000064e+00
1.278020601692099190e+00 2.983337999999999823e+00
1.305994514823037633e+00 2.984034999999999993e+00
1.334582502555725414e+00 2.959769000000000094e+00
1.363795059788775355e+00 2.915913000000000199e+00
1.393646643680787944e+00 2.859067000000000025e+00
1.424152486855072564e+00 2.793426999999999882e+00
1.455324450032890349e+00 2.720969999999999889e+00
1.487179029585939727e+00 2.644079000000000068e+00
1.519733742648287977e+00 2.567271999999999998e+00
1.552997595959721311e+00 2.496503999999999834e+00
1.586991746055928854e+00 2.436799000000000159e+00
1.621728568046108876e+00 2.389879000000000087e+00
1.657226002538870313e+00 2.352936000000000138e+00
1.693503044918474698e+00 2.319507000000000208e+00
1.730570880722132499e+00 2.282741000000000131e+00
1.768449794594556090e+00 2.239504999999999857e+00
1.807161419272292235e+00 2.192130000000000134e+00
1.846718657952616915e+00 2.145904999999999951e+00
1.887141395956233536e+00 2.104575999999999780e+00
1.928446905999783967e+00 2.067746999999999780e+00
1.970660801980119947e+00 2.031746000000000052e+00
2.013794492272063863e+00 1.992607000000000017e+00
2.057875696076454375e+00 1.949025000000000007e+00
2.102921167794182811e+00 1.903577999999999992e+00
2.148947875120341244e+00 1.861304999999999987e+00
2.195987491655247315e+00 1.826375999999999999e+00
2.244054377925685628e+00 1.799441000000000068e+00
2.293172994677545429e+00 1.777552000000000021e+00
2.343369202504593130e+00 1.756251000000000007e+00
2.394664687077192156e+00 1.732080999999999982e+00
2.447081854888045971e+00 1.704064999999999941e+00
2.500643915808320461e+00 1.673543999999999921e+00
2.555381505681890708e+00 1.642857999999999929e+00
2.611313778074887182e+00 1.613922999999999996e+00
2.668474113132628389e+00 1.587598000000000065e+00
2.726883526623927079e+00 1.563862000000000085e+00
2.786570957242854973e+00 1.542294000000000054e+00
2.847566896465314912e+00 1.522617000000000109e+00
2.909895098281706893e+00 1.505176999999999987e+00
2.973597428432943612e+00 1.491112999999999911e+00
3.038682427299522981e+00 1.481913999999999954e+00
3.105194680180473732e+00 1.478676000000000101e+00
3.173162659491088000e+00 1.481584999999999930e+00
3.242626267866870915e+00 1.489784999999999915e+00
3.313595350363004233e+00 1.501565000000000039e+00
3.386134456627003964e+00 1.514750999999999959e+00
3.460243531939777739e+00 1.527319000000000093e+00
3.535992871438371044e+00 1.538065999999999933e+00
3.613382523514086397e+00 1.546583999999999959e+00
3.692475841976804229e+00 1.552302000000000071e+00
3.773300128292204736e+00 1.553679000000000032e+00
3.855897402281920350e+00 1.548675000000000024e+00
3.940296625529969621e+00 1.536335000000000006e+00
4.026542971266589888e+00 1.518086999999999964e+00
4.114684485993613805e+00 1.497735999999999956e+00
4.204754736656211023e+00 1.480116999999999905e+00
4.296787721499407020e+00 1.469435999999999964e+00
4.390837200929101236e+00 1.468310999999999922e+00
4.486960891648868355e+00 1.477629999999999999e+00
4.585157844058781684e+00 1.496987999999999985e+00
4.685530612914259763e+00 1.525328000000000017e+00
4.788102522851219511e+00 1.561500000000000110e+00
4.892894538551115780e+00 1.604319999999999968e+00
