# frequency(Hz) HVamp
2.000000000000000042e-02 6.834109999999999907e-01
2.043777802275861116e-02 6.757710000000000106e-01
2.088513892042544867e-02 6.698699999999999655e-01
2.134229185993890415e-02 6.647359999999999935e-01
2.180945121728470465e-02 6.592179999999999707e-01
2.228683671448790371e-02 6.526659999999999684e-01
2.277467095838639488e-02 6.453290000000000415e-01
2.327318386720582041e-02 6.377770000000000383e-01
2.378260869151607032e-02 6.300700000000000189e-01
2.430318396985316209e-02 6.215540000000000509e-01
2.483515418061077798e-02 6.116610000000000102e-01
2.537876860438217572e-02 6.007350000000000190e-01
2.593428185548686538e-02 5.900170000000000137e-01
2.650195524800330604e-02 5.813739999999999464e-01
2.708205410122367304e-02 5.770079999999999654e-01
2.767485116257483238e-02 5.785559999999999592e-01
2.828062296556268368e-02 5.859189999999999676e-01
2.889965516642458918e-02 5.971180000000000376e-01
2.953223712425469966e-02 6.093699999999999672e-01
3.017866585007221089e-02 6.201020000000000421e-01
3.083924344304486698e-02 6.274330000000000185e-01
3.151428172097601316e-02 6.306709999999999816e-01
3.220409460893151193e-02 6.307570000000000121e-01
3.290900679366954434e-02 6.300890000000000102e-01
3.362935008254323843e-02 6.316110000000000335e-01
3.436545982617606604e-02 6.372809999999999864e-01
3.511768145762538679e-02 6.464739999999999931e-01
3.588636982920923035e-02 6.556049999999999933e-01
3.667188287528685281e-02 6.599260000000000126e-01
3.747459035401046190e-02 6.563360000000000305e-01
3.829486888200696326e-02 6.449329999999999785e-01
3.913310161841203338e-02 6.283279999999999976e-01
3.998968266187323539e-02 6.100330000000000474e-01
4.086501260624340881e-02 5.931340000000000501e-01
4.175950326235679244e-02 5.792359999999999731e-01
4.267357455111880221e-02 5.679619999999999669e-01
4.360765235805109941e-02 5.576290000000000413e-01
4.456217573218773653e-02 5.464820000000000233e-01
4.553759360593897382e-02 5.331540000000000168e-01
4.653436264861679494e-02 5.165210000000000079e-01
4.755294901990994583e-02 4.961690000000000267e-01
4.859383060501651364e-02 4.739320000000000199e-01
4.965749734357217948e-02 4.545210000000000083e-01
5.074444382592605690e-02 4.431080000000000019e-01
5.185518671652646766e-02 4.427670000000000217e-01
5.299023919793973553e-02 4.536850000000000049e-01
5.415013688613103116e-02 4.731219999999999870e-01
5.533542508618215922e-02 4.956430000000000002e-01
5.654665825930951795e-02 5.143879999999999564e-01
5.778440269534190765e-02 5.235779999999999879e-01
5.904923992113619846e-02 5.209789999999999699e-01
6.034176368113722960e-02 5.090470000000000272e-01
6.166257977365023624e-02 4.938969999999999749e-01
6.301230579922413588e-02 4.813839999999999786e-01
6.439157495481964699e-02 4.727620000000000156e-01
6.580103648476649802e-02 4.647720000000000184e-01
6.724135160227064090e-02 4.534810000000000230e-01
6.871319291929786632e-02 4.380899999999999794e-01
7.021724865648072689e-02 4.220470000000000055e-01
7.175422799231455373e-02 4.100639999999999841e-01
7.332484622679873165e-02 4.035279999999999978e-01
7.492985067379918929e-02 3.991069999999999895e-01
7.656998328017844413e-02 3.916189999999999949e-01
7.824601847091161577e-02 3.784810000000000119e-01
7.995873489609482687e-02 3.627250000000000196e-01
8.170894587125514252e-02 3.519360000000000266e-01
8.349746848200181870e-02 3.531659999999999799e-01
8.532513483931059017e-02 3.679479999999999973e-01
8.719280666320453066e-02 3.909059999999999757e-01
8.910136197668877545e-02 4.123899999999999788e-01
9.105169441740208758e-02 4.238669999999999938e-01
9.304472101470850909e-02 4.227429999999999799e-01
9.508136492722282784e-02 4.129999999999999782e-01
9.716259003207046441e-02 4.018990000000000062e-01
9.928937600698042876e-02 3.958800000000000097e-01
1.014627169666056788e-01 3.978599999999999914e-01
1.036836198025345573e-01 4.065849999999999742e-01
1.059531470945422049e-01 4.180940000000000212e-01
1.082723426204657002e-01 4.283560000000000145e-01
1.106423073612318730e-01 4.353940000000000032e-01
1.130641434367904014e-01 4.395689999999999875e-01
1.155389888050807612e-01 4.423779999999999935e-01
1.180680199308263012e-01 4.451510000000000189e-01
1.206523964642573915e-01 4.485560000000000103e-01
1.232933427266421494e-01 4.528499999999999748e-01
1.259921091142061633e-01 4.582459999999999867e-01
1.287499385219043613e-01 4.647109999999999852e-01
1.315681276210838024e-01 4.714929999999999954e-01
1.344480149355610776e-01 4.772310000000000163e-01
1.373909270603933253e-01 4.809829999999999939e-01
1.403982677661723133e-01 4.833109999999999906e-01
1.434714465996406174e-01 4.862650000000000028e-01
1.466118729226930095e-01 4.920280000000000209e-01
1.498210387691902012e-01 5.013349999999999751e-01
1.531004603883944215e-01 5.130299999999999860e-01
1.564516759885790365e-01 5.250510000000000455e-01
1.598762174374112610e-01 5.360540000000000305e-01
1.633757347823671657e-01 5.462890000000000246e-01
1.669518482487836186e-01 5.568100000000000271e-01
1.706062493069121222e-01 5.677670000000000217e-01
1.743406480276755433e-01 5.777689999999999770e-01
1.781567686922972404e-01 5.852180000000000160e-01
1.820564109071452219e-01 5.899069999999999592e-01
1.860414236112984399e-01 5.933260000000000201e-01
1.901136708649468487e-01 5.982560000000000100e-01
1.942750635716576912e-01 6.077099999999999724e-01
1.985275213739692568e-01 6.229419999999999957e-01
2.028730886819132551e-01 6.418620000000000436e-01
2.073137384534022021e-01 6.597910000000000164e-01
2.118516148918974384e-01 6.724809999999999954e-01
2.164888283105038391e-01 6.788060000000000205e-01
2.212275340673810209e-01 6.809809999999999475e-01
2.260699835805370650e-01 6.825689999999999813e-01
2.310183752015635139e-01 6.860439999999999872e-01
2.360751096568884100e-01 6.918729999999999603e-01
2.412425341466744866e-01 6.994749999999999579e-01
2.465230998307618715e-01 7.084500000000000242e-01
2.519191833183147544e-01 7.185820000000000540e-01
2.574334553825345373e-01 7.290720000000000534e-01
2.630683822583526066e-01 7.384089999999999820e-01
2.688266710467492326e-01 7.452649999999999553e-01
2.747110108843249798e-01 7.493840000000000501e-01
2.807241335168895180e-01 7.514490000000000336e-01
2.868688920234096495e-01 7.525619999999999532e-01
2.931481028187655768e-01 7.541780000000000150e-01
2.995647922697904919e-01 7.579329999999999679e-01
3.061219491886544297e-01 7.645119999999999694e-01
3.128225983045015424e-01 7.723499999999999810e-01
3.196699982673885665e-01 7.780160000000000409e-01
3.266672524899394969e-01 7.783839999999999648e-01
3.338175913859038335e-01 7.724699999999999900e-01
3.411245032800827026e-01 7.611980000000000413e-01
3.485912903071751723e-01 7.462689999999999602e-01
3.562216425308692980e-01 7.300990000000000535e-01
3.640189144227933826e-01 7.162929999999999575e-01
3.719868599361595973e-01 7.090549999999999908e-01
3.801292743636255911e-01 7.112420000000000408e-01
3.884498326752345854e-01 7.221090000000000009e-01
3.969526737144291051e-01 7.363739999999999730e-01
4.056414997215270768e-01 7.460189999999999877e-01
4.145204868460213854e-01 7.443400000000000016e-01
4.235940173275368759e-01 7.294049999999999701e-01
4.328659535344370757e-01 7.041840000000000321e-01
4.423408678727827614e-01 6.738060000000000160e-01
4.520233696082087693e-01 6.429559999999999720e-01
4.619176604055267865e-01 6.150149999999999784e-01
4.720285331807737017e-01 5.923150000000000359e-01
4.823605567984378673e-01 5.763000000000000345e-01
4.929189725005434508e-01 5.671810000000000462e-01
5.037085542305222985e-01 5.636949999999999461e-01
5.147340034826902722e-01 5.632610000000000117e-01
5.260010193899755659e-01 5.622939999999999605e-01
5.375147682182568332e-01 5.566929999999999934e-01
5.492803329078241870e-01 5.429469999999999574e-01
5.613033013614973088e-01 5.197880000000000278e-01
5.735898580135665448e-01 4.892190000000000150e-01
5.861448258358571417e-01 4.556819999999999760e-01
5.989749143316128732e-01 4.238279999999999825e-01
6.120861303119130570e-01 3.967530000000000223e-01
6.254839682204105245e-01 3.756929999999999992e-01
6.391749019026319312e-01 3.605499999999999816e-01
6.531657310067570110e-01 3.503129999999999855e-01
6.674631727194452191e-01 3.434309999999999863e-01
6.820728740300071591e-01 3.387990000000000168e-01
6.970030263871405118e-01 3.370219999999999883e-01
7.122593364734473020e-01 3.406469999999999776e-01
7.278502433567288765e-01 3.526150000000000118e-01
7.437819826252529687e-01 3.738199999999999856e-01
7.600626595656545526e-01 4.016489999999999783e-01
7.766996323880640540e-01 4.308710000000000040e-01
7.937005574159013976e-01 4.561250000000000027e-01
8.110740810733430006e-01 4.740800000000000014e-01
8.288272757110509703e-01 4.842989999999999795e-01
8.469695429752346350e-01 4.889459999999999917e-01
8.655086161382736787e-01 4.916829999999999812e-01
8.844540397880493732e-01 4.961979999999999724e-01
9.038134601323364326e-01 5.050130000000000452e-01
9.235972635660274488e-01 5.190050000000000496e-01
9.438138195107080852e-01 5.378279999999999728e-01
9.644726842046378312e-01 5.607410000000000450e-01
9.855838648094324972e-01 5.868280000000000163e-01
1.007156856623164121e+00 6.143790000000000084e-01
1.029202594413900052e+00 6.404090000000000060e-01
1.051730412046940843e+00 6.612860000000000404e-01
1.074752242739242414e+00 6.743869999999999587e-01
1.098277132661993116e+00 6.795710000000000361e-01
1.122316821060050707e+00 6.791660000000000474e-01
1.146883687643933891e+00 6.766189999999999705e-01
1.171988078537265165e+00 6.751049999999999551e-01
1.197640647923590596e+00 6.768920000000000492e-01
1.223856887071053556e+00 6.833080000000000265e-01
1.250645645814651763e+00 6.948509999999999964e-01
1.278020601692099190e+00 7.111650000000000471e-01
1.305994514823037633e+00 7.310449999999999449e-01
1.334582502555725414e+00 7.528740000000000432e-01
1.363795059788775355e+00 7.753280000000000172e-01
1.393646643680787944e+00 7.977429999999999799e-01
1.424152486855072564e+00 8.199729999999999519e-01
1.455324450032890349e+00 8.422460000000000502e-01
1.487179029585939727e+00 8.651780000000000026e-01
1.519733742648287977e+00 8.897319999999999673e-01
1.552997595959721311e+00 9.168779999999999708e-01
1.586991746055928854e+00 9.467160000000000020e-01
1.621728568046108876e+00 9.774359999999999715e-01
1.657226002538870313e+00 1.005160000000000053e+00
1.693503044918474698e+00 1.025266999999999928e+00
1.730570880722132499e+00 1.034464000000000050e+00
1.768449794594556090e+00 1.032156999999999991e+00
1.807161419272292235e+00 1.020302000000000042e+00
1.846718657952616915e+00 1.002100999999999908e+00
1.887141395956233536e+00 9.807010000000000449e-01
1.928446905999783967e+00 9.587029999999999719e-01
1.970660801980119947e+00 9.382409999999999917e-01
2.013794492272063863e+00 9.208910000000000151e-01
2.057875696076454375e+00 9.071709999999999496e-01
2.102921167794182811e+00 8.960860000000000491e-01
2.148947875120341244e+00 8.853440000000000198e-01
2.195987491655247315e+00 8.723579999999999668e-01
2.244054377925685628e+00 8.555840000000000112e-01
2.293172994677545429e+00 8.355500000000000149e-01
2.343369202504593130e+00 8.147119999999999918e-01
2.394664687077192156e+00 7.960629999999999651e-01
2.447081854888045971e+00 7.815819999999999990e-01
2.500643915808320461e+00 7.716260000000000341e-01
2.555381505681890708e+00 7.653720000000000523e-01
2.611313778074887182e+00 7.616540000000000532e-01
2.668474113132628389e+00 7.595889999999999587e-01
2.726883526623927079e+00 7.587369999999999948e-01
2.786570957242854973e+00 7.589669999999999472e-01
2.847566896465314912e+00 7.601470000000000171e-01
2.909895098281706893e+00 7.619620000000000282e-01
2.973597428432943612e+00 7.640850000000000142e-01
3.038682427299522981e+00 7.663619999999999877e-01
3.105194680180473732e+00 7.687030000000000252e-01
3.173162659491088000e+00 7.708150000000000279e-01
3.242626267866870915e+00 7.720409999999999773e-01
3.313595350363004233e+00 7.714389999999999858e-01
3.386134456627003964e+00 7.682109999999999772e-01
3.460243531939777739e+00 7.622640000000000526e-01
3.535992871438371044e+00 7.545100000000000140e-01
3.613382523514086397e+00 7.466460000000000319e-01
3.692475841976804229e+00 7.404150000000000453e-01
3.773300128292204736e+00 7.367439999999999545e-01
3.855897402281920350e+00 7.353709999999999969e-01
3.940296625529969621e+00 7.352030000000000509e-01
4.026542971266589888e+00 7.350879999999999637e-01
4.114684485993613805e+00 7.344619999999999482e-01
4.204754736656211023e+00 7.335509999999999531e-01
4.296787721499407020e+00 7.331750000000000211e-01
4.390837200929101236e+00 7.342790000000000150e-01
4.486960891648868355e+00 7.373269999999999547e-01
4.585157844058781684e+00 7.418979999999999464e-01
4.685530612914259763e+00 7.467359999999999554e-01
4.788102522851219511e+00 7.502919999999999590e-01
4.892894538551115780e+00 7.513570000000000526e-01
