# frequency(Hz) HVamp
2.000000000000000042e-02 1.147181999999999924e+00
2.043777802275861116e-02 1.142536999999999914e+00
2.088513892042544867e-02 1.128819000000000017e+00
2.134229185993890415e-02 1.111992000000000091e+00
2.180945121728470465e-02 1.098721999999999976e+00
2.228683671448790371e-02 1.092022999999999966e+00
2.277467095838639488e-02 1.090036000000000005e+00
2.327318386720582041e-02 1.088270999999999988e+00
2.378260869151607032e-02 1.082624999999999948e+00
2.430318396985316209e-02 1.070785000000000098e+00
2.483515418061077798e-02 1.053403000000000089e+00
2.537876860438217572e-02 1.033414000000000055e+00
2.593428185548686538e-02 1.013552999999999926e+00
2.650195524800330604e-02 9.946739999999999471e-01
2.708205410122367304e-02 9.763469999999999649e-01
2.767485116257483238e-02 9.586350000000000149e-01
2.828062296556268368e-02 9.427860000000000129e-01
2.889965516642458918e-02 9.305280000000000218e-01
2.953223712425469966e-02 9.231129999999999614e-01
3.017866585007221089e-02 9.207990000000000341e-01
3.083924344304486698e-02 9.231749999999999678e-01
3.151428172097601316e-02 9.297009999999999996e-01
3.220409460893151193e-02 9.392660000000000453e-01
3.290900679366954434e-02 9.493489999999999984e-01
3.362935008254323843e-02 9.561269999999999492e-01
3.436545982617606604e-02 9.559609999999999497e-01
3.511768145762538679e-02 9.473639999999999839e-01
3.588636982920923035e-02 9.318779999999999841e-01
3.667188287528685281e-02 9.132099999999999662e-01
3.747459035401046190e-02 8.955579999999999652e-01
3.829486888200696326e-02 8.818540000000000267e-01
3.913310161841203338e-02 8.729160000000000252e-01
3.998968266187323539e-02 8.679170000000000496e-01
4.086501260624340881e-02 8.655119999999999481e-01
4.175950326235679244e-02 8.651100000000000456e-01
4.267357455111880221e-02 8.676620000000000443e-01
4.360765235805109941e-02 8.752060000000000395e-01
4.456217573218773653e-02 8.888859999999999539e-01
4.553759360593897382e-02 9.062890000000000112e-01
4.653436264861679494e-02 9.204210000000000447e-01
4.755294901990994583e-02 9.235050000000000203e-01
4.859383060501651364e-02 9.141049999999999454e-01
4.965749734357217948e-02 8.986309999999999576e-01
5.074444382592605690e-02 8.856600000000000028e-01
5.185518671652646766e-02 8.807690000000000241e-01
5.299023919793973553e-02 8.851409999999999556e-01
5.415013688613103116e-02 8.977389999999999537e-01
5.533542508618215922e-02 9.181099999999999817e-01
5.654665825930951795e-02 9.470290000000000097e-01
5.778440269534190765e-02 9.844500000000000473e-01
5.904923992113619846e-02 1.025943999999999967e+00
6.034176368113722960e-02 1.062497000000000025e+00
6.166257977365023624e-02 1.087269000000000041e+00
6.301230579922413588e-02 1.100157000000000052e+00
6.439157495481964699e-02 1.105046999999999890e+00
6.580103648476649802e-02 1.106232000000000104e+00
6.724135160227064090e-02 1.106138999999999983e+00
6.871319291929786632e-02 1.104165000000000063e+00
7.021724865648072689e-02 1.097779999999999978e+00
7.175422799231455373e-02 1.085612000000000021e+00
7.332484622679873165e-02 1.070135999999999976e+00
7.492985067379918929e-02 1.057298999999999989e+00
7.656998328017844413e-02 1.053392000000000106e+00
7.824601847091161577e-02 1.061814999999999953e+00
7.995873489609482687e-02 1.081510999999999889e+00
8.170894587125514252e-02 1.107401000000000080e+00
8.349746848200181870e-02 1.132341999999999960e+00
8.532513483931059017e-02 1.150052999999999992e+00
8.719280666320453066e-02 1.157548999999999939e+00
8.910136197668877545e-02 1.155475999999999948e+00
9.105169441740208758e-02 1.146582999999999908e+00
9.304472101470850909e-02 1.133891999999999900e+00
9.508136492722282784e-02 1.119620999999999977e+00
9.716259003207046441e-02 1.104754999999999932e+00
9.928937600698042876e-02 1.089074000000000098e+00
1.014627169666056788e-01 1.072454000000000018e+00
1.036836198025345573e-01 1.056373000000000006e+00
1.059531470945422049e-01 1.043970999999999982e+00
1.082723426204657002e-01 1.039169000000000009e+00
1.106423073612318730e-01 1.045296999999999921e+00
1.130641434367904014e-01 1.063345999999999902e+00
1.155389888050807612e-01 1.091059000000000001e+00
1.180680199308263012e-01 1.123825000000000074e+00
1.206523964642573915e-01 1.156897000000000064e+00
1.232933427266421494e-01 1.187837999999999949e+00
1.259921091142061633e-01 1.217750000000000110e+00
1.287499385219043613e-01 1.250517000000000101e+00
1.315681276210838024e-01 1.290826000000000029e+00
1.344480149355610776e-01 1.342003999999999975e+00
1.373909270603933253e-01 1.404222999999999999e+00
1.403982677661723133e-01 1.474151999999999907e+00
1.434714465996406174e-01 1.546624999999999917e+00
1.466118729226930095e-01 1.617013000000000034e+00
1.498210387691902012e-01 1.682425999999999977e+00
1.531004603883944215e-01 1.741179999999999950e+00
1.564516759885790365e-01 1.791603999999999974e+00
1.598762174374112610e-01 1.831873000000000085e+00
1.633757347823671657e-01 1.861328000000000094e+00
1.669518482487836186e-01 1.881518000000000024e+00
1.706062493069121222e-01 1.895289000000000001e+00
1.743406480276755433e-01 1.904096999999999928e+00
1.781567686922972404e-01 1.905750000000000055e+00
1.820564109071452219e-01 1.895327999999999902e+00
1.860414236112984399e-01 1.869053000000000075e+00
1.901136708649468487e-01 1.827479000000000076e+00
1.942750635716576912e-01 1.775773999999999964e+00
1.985275213739692568e-01 1.721927999999999903e+00
2.028730886819132551e-01 1.674050999999999956e+00
2.073137384534022021e-01 1.637647000000000075e+00
2.118516148918974384e-01 1.614249999999999963e+00
2.164888283105038391e-01 1.602351000000000081e+00
2.212275340673810209e-01 1.599304999999999977e+00
2.260699835805370650e-01 1.602168999999999954e+00
2.310183752015635139e-01 1.607871999999999968e+00
2.360751096568884100e-01 1.614047999999999927e+00
2.412425341466744866e-01 1.619639999999999969e+00
2.465230998307618715e-01 1.624057000000000084e+00
2.519191833183147544e-01 1.626082000000000027e+00
2.574334553825345373e-01 1.624290000000000012e+00
2.630683822583526066e-01 1.618371000000000004e+00
2.688266710467492326e-01 1.609617999999999993e+00
2.747110108843249798e-01 1.600070000000000103e+00
2.807241335168895180e-01 1.590891999999999973e+00
2.868688920234096495e-01 1.581633999999999984e+00
2.931481028187655768e-01 1.571371999999999991e+00
2.995647922697904919e-01 1.560567999999999955e+00
3.061219491886544297e-01 1.551622999999999974e+00
3.128225983045015424e-01 1.547622999999999971e+00
3.196699982673885665e-01 1.550300999999999929e+00
3.266672524899394969e-01 1.558796999999999988e+00
3.338175913859038335e-01 1.570008999999999988e+00
3.411245032800827026e-01 1.580079000000000011e+00
3.485912903071751723e-01 1.585830999999999991e+00
3.562216425308692980e-01 1.585758999999999919e+00
3.640189144227933826e-01 1.580650000000000110e+00
3.719868599361595973e-01 1.573366999999999960e+00
3.801292743636255911e-01 1.567477999999999927e+00
3.884498326752345854e-01 1.565255999999999981e+00
3.969526737144291051e-01 1.566500999999999921e+00
4.056414997215270768e-01 1.569169999999999954e+00
4.145204868460213854e-01 1.571169999999999956e+00
4.235940173275368759e-01 1.571774999999999922e+00
4.328659535344370757e-01 1.571571999999999969e+00
4.423408678727827614e-01 1.571164999999999923e+00
4.520233696082087693e-01 1.570294999999999996e+00
4.619176604055267865e-01 1.568508999999999931e+00
4.720285331807737017e-01 1.566443999999999948e+00
4.823605567984378673e-01 1.566167000000000087e+00
4.929189725005434508e-01 1.570168999999999926e+00
5.037085542305222985e-01 1.580022999999999955e+00
5.147340034826902722e-01 1.595749000000000084e+00
5.260010193899755659e-01 1.615806000000000076e+00
5.375147682182568332e-01 1.637458000000000080e+00
5.492803329078241870e-01 1.657582000000000111e+00
5.613033013614973088e-01 1.673853000000000035e+00
5.735898580135665448e-01 1.685758000000000090e+00
5.861448258358571417e-01 1.694692000000000087e+00
5.989749143316128732e-01 1.703248000000000095e+00
6.120861303119130570e-01 1.714531999999999945e+00
6.254839682204105245e-01 1.731862000000000013e+00
6.391749019026319312e-01 1.758167999999999953e+00
6.531657310067570110e-01 1.794599999999999973e+00
6.674631727194452191e-01 1.838966000000000101e+00
6.820728740300071591e-01 1.885240999999999945e+00
6.970030263871405118e-01 1.925057000000000018e+00
7.122593364734473020e-01 1.950804999999999900e+00
7.278502433567288765e-01 1.958717000000000041e+00
7.437819826252529687e-01 1.950088000000000044e+00
7.600626595656545526e-01 1.929824999999999902e+00
7.766996323880640540e-01 1.903302999999999967e+00
7.937005574159013976e-01 1.873756999999999895e+00
8.110740810733430006e-01 1.841922999999999977e+00
8.288272757110509703e-01 1.807530999999999999e+00
8.469695429752346350e-01 1.770920000000000050e+00
8.655086161382736787e-01 1.733543999999999974e+00
8.844540397880493732e-01 1.697445000000000093e+00
9.038134601323364326e-01 1.664463999999999944e+00
9.235972635660274488e-01 1.635758000000000045e+00
9.438138195107080852e-01 1.611780999999999908e+00
9.644726842046378312e-01 1.592567999999999984e+00
9.855838648094324972e-01 1.578106999999999926e+00
1.007156856623164121e+00 1.568502999999999981e+00
1.029202594413900052e+00 1.563609999999999944e+00
1.051730412046940843e+00 1.562202000000000091e+00
1.074752242739242414e+00 1.561241000000000101e+00
1.098277132661993116e+00 1.556130000000000013e+00
1.122316821060050707e+00 1.542505000000000015e+00
1.146883687643933891e+00 1.518658999999999981e+00
1.171988078537265165e+00 1.486459999999999892e+00
1.197640647923590596e+00 1.449837000000000042e+00
1.223856887071053556e+00 1.412423999999999902e+00
1.250645645814651763e+00 1.376503999999999950e+00
1.278020601692099190e+00 1.343628999999999962e+00
1.305994514823037633e+00 1.315681000000000100e+00
1.334582502555725414e+00 1.295153999999999916e+00
1.363795059788775355e+00 1.284664999999999946e+00
1.393646643680787944e+00 1.286357999999999890e+00
1.424152486855072564e+00 1.301657999999999982e+00
1.455324450032890349e+00 1.331388999999999934e+00
1.487179029585939727e+00 1.375963000000000047e+00
1.519733742648287977e+00 1.435103000000000018e+00
1.552997595959721311e+00 1.506953999999999905e+00
1.586991746055928854e+00 1.587269000000000041e+00
1.621728568046108876e+00 1.669820000000000082e+00
1.657226002538870313e+00 1.748402000000000012e+00
1.693503044918474698e+00 1.819347999999999965e+00
1.730570880722132499e+00 1.882730999999999932e+00
1.768449794594556090e+00 1.941488000000000103e+00
1.807161419272292235e+00 1.999379000000000017e+00
1.846718657952616915e+00 2.058870999999999896e+00
1.887141395956233536e+00 2.119708000000000148e+00
1.928446905999783967e+00 2.178735999999999784e+00
1.970660801980119947e+00 2.230996000000000201e+00
2.013794492272063863e+00 2.271314999999999973e+00
2.057875696076454375e+00 2.295478000000000129e+00
2.102921167794182811e+00 2.300672000000000050e+00
2.148947875120341244e+00 2.285709000000000213e+00
2.195987491655247315e+00 2.251533999999999924e+00
2.244054377925685628e+00 2.201820000000000110e+00
2.293172994677545429e+00 2.142856000000000094e+00
2.343369202504593130e+00 2.082043999999999784e+00
2.394664687077192156e+00 2.025329000000000157e+00
2.447081854888045971e+00 1.975203999999999960e+00
2.500643915808320461e+00 1.930493000000000015e+00
2.555381505681890708e+00 1.887639999999999985e+00
2.611313778074887182e+00 1.842935999999999908e+00
2.668474113132628389e+00 1.794977999999999962e+00
2.726883526623927079e+00 1.745627999999999957e+00
2.786570957242854973e+00 1.698420000000000041e+00
2.847566896465314912e+00 1.656226999999999894e+00
2.909895098281706893e+00 1.620179999999999954e+00
2.973597428432943612e+00 1.589688999999999908e+00
3.038682427299522981e+00 1.562847000000000097e+00
3.105194680180473732e+00 1.536999000000000004e+00
3.173162659491088000e+00 1.509282000000000012e+00
3.242626267866870915e+00 1.477297000000000082e+00
3.313595350363004233e+00 1.440153000000000016e+00
3.386134456627003964e+00 1.399294999999999956e+00
3.460243531939777739e+00 1.358421000000000101e+00
3.535992871438371044e+00 1.322465999999999919e+00
3.613382523514086397e+00 1.296003000000000016e+00
3.692475841976804229e+00 1.281616000000000088e+00
3.773300128292204736e+00 1.278936999999999991e+00
3.855897402281920350e+00 1.284774000000000083e+00
3.940296625529969621e+00 1.294413000000000036e+00
4.026542971266589888e+00 1.303592000000000084e+00
4.114684485993613805e+00 1.310203999999999924e+00
4.204754736656211023e+00 1.314923999999999982e+00
4.296787721499407020e+00 1.320535999999999932e+00
4.390837200929101236e+00 1.330446000000000017e+00
4.486960891648868355e+00 1.347237000000000018e+00
4.585157844058781684e+00 1.371858999999999940e+00
4.685530612914259763e+00 1.403566000000000091e+00
4.788102522851219511e+00 1.440229999999999899e+00
4.892894538551115780e+00 1.478774000000000033e+00
