# frequency(Hz) HVamp
2.000000000000000042e-02 1.692017000000000104e+00
2.043777802275861116e-02 1.642171000000000047e+00
2.088513892042544867e-02 1.589495000000000102e+00
2.134229185993890415e-02 1.534796999999999967e+00
2.180945121728470465e-02 1.478963999999999945e+00
2.228683671448790371e-02 1.422995999999999928e+00
2.277467095838639488e-02 1.368305000000000105e+00
2.327318386720582041e-02 1.316395999999999900e+00
2.378260869151607032e-02 1.268305000000000016e+00
2.430318396985316209e-02 1.225050999999999890e+00
2.483515418061077798e-02 1.188050999999999968e+00
2.537876860438217572e-02 1.158285999999999927e+00
2.593428185548686538e-02 1.135704000000000047e+00
2.650195524800330604e-02 1.119515000000000038e+00
2.708205410122367304e-02 1.108838999999999908e+00
2.767485116257483238e-02 1.103101000000000109e+00
2.828062296556268368e-02 1.102011999999999992e+00
2.889965516642458918e-02 1.105401000000000078e+00
2.953223712425469966e-02 1.113172999999999968e+00
3.017866585007221089e-02 1.125426999999999955e+00
3.083924344304486698e-02 1.142395000000000049e+00
3.151428172097601316e-02 1.163723999999999981e+00
3.220409460893151193e-02 1.187613000000000030e+00
3.290900679366954434e-02 1.210868999999999973e+00
3.362935008254323843e-02 1.229795999999999889e+00
3.436545982617606604e-02 1.241533999999999915e+00
3.511768145762538679e-02 1.245853000000000099e+00
3.588636982920923035e-02 1.246150000000000091e+00
3.667188287528685281e-02 1.248150000000000093e+00
3.747459035401046190e-02 1.257060999999999984e+00
3.829486888200696326e-02 1.275514000000000037e+00
3.913310161841203338e-02 1.303315000000000001e+00
3.998968266187323539e-02 1.338319999999999954e+00
4.086501260624340881e-02 1.377728000000000064e+00
4.175950326235679244e-02 1.419472999999999985e+00
4.267357455111880221e-02 1.463003000000000053e+00
4.360765235805109941e-02 1.508707999999999938e+00
4.456217573218773653e-02 1.556602000000000041e+00
4.553759360593897382e-02 1.605715000000000003e+00
4.653436264861679494e-02 1.654495000000000049e+00
4.755294901990994583e-02 1.701252999999999904e+00
4.859383060501651364e-02 1.744191999999999965e+00
4.965749734357217948e-02 1.781579000000000024e+00
5.074444382592605690e-02 1.812205999999999984e+00
5.185518671652646766e-02 1.835752000000000050e+00
5.299023919793973553e-02 1.853018000000000054e+00
5.415013688613103116e-02 1.865771000000000068e+00
5.533542508618215922e-02 1.876282999999999923e+00
5.654665825930951795e-02 1.886916000000000038e+00
5.778440269534190765e-02 1.899656999999999929e+00
5.904923992113619846e-02 1.915537000000000045e+00
6.034176368113722960e-02 1.934376000000000095e+00
6.166257977365023624e-02 1.955305999999999989e+00
6.301230579922413588e-02 1.977486000000000077e+00
6.439157495481964699e-02 1.999959000000000042e+00
6.580103648476649802e-02 2.020490000000000119e+00
6.724135160227064090e-02 2.034609000000000112e+00
6.871319291929786632e-02 2.036929999999999907e+00
7.021724865648072689e-02 2.024341000000000168e+00
7.175422799231455373e-02 1.998204000000000091e+00
7.332484622679873165e-02 1.964350999999999958e+00
7.492985067379918929e-02 1.932487000000000066e+00
7.656998328017844413e-02 1.915731999999999990e+00
7.824601847091161577e-02 1.928126999999999924e+00
7.995873489609482687e-02 1.979287000000000019e+00
8.170894587125514252e-02 2.069001999999999786e+00
8.349746848200181870e-02 2.184934999999999850e+00
8.532513483931059017e-02 2.304235999999999951e+00
8.719280666320453066e-02 2.399217000000000155e+00
8.910136197668877545e-02 2.447328000000000170e+00
9.105169441740208758e-02 2.442086999999999897e+00
9.304472101470850909e-02 2.396888000000000130e+00
9.508136492722282784e-02 2.336556999999999995e+00
9.716259003207046441e-02 2.282074000000000158e+00
9.928937600698042876e-02 2.240171000000000134e+00
1.014627169666056788e-01 2.204006000000000132e+00
1.036836198025345573e-01 2.161903000000000130e+00
1.059531470945422049e-01 2.106981000000000215e+00
1.082723426204657002e-01 2.041103999999999807e+00
1.106423073612318730e-01 1.972047000000000105e+00
1.130641434367904014e-01 1.907977999999999952e+00
1.155389888050807612e-01 1.854141999999999957e+00
1.180680199308263012e-01 1.812977000000000061e+00
1.206523964642573915e-01 1.785260999999999987e+00
1.232933427266421494e-01 1.770181999999999922e+00
1.259921091142061633e-01 1.764982000000000051e+00
1.287499385219043613e-01 1.765563999999999911e+00
1.315681276210838024e-01 1.767810000000000104e+00
1.344480149355610776e-01 1.768345999999999973e+00
1.373909270603933253e-01 1.764418999999999960e+00
1.403982677661723133e-01 1.753681000000000045e+00
1.434714465996406174e-01 1.734510999999999914e+00
1.466118729226930095e-01 1.706795000000000062e+00
1.498210387691902012e-01 1.672444000000000042e+00
1.531004603883944215e-01 1.634832000000000063e+00
1.564516759885790365e-01 1.597325000000000106e+00
1.598762174374112610e-01 1.562097000000000069e+00
1.633757347823671657e-01 1.530019000000000018e+00
1.669518482487836186e-01 1.501424000000000092e+00
1.706062493069121222e-01 1.476955000000000018e+00
1.743406480276755433e-01 1.457716999999999929e+00
1.781567686922972404e-01 1.444460000000000077e+00
1.820564109071452219e-01 1.436566000000000010e+00
1.860414236112984399e-01 1.431856999999999935e+00
1.901136708649468487e-01 1.427254000000000023e+00
1.942750635716576912e-01 1.419818999999999942e+00
1.985275213739692568e-01 1.407755000000000090e+00
2.028730886819132551e-01 1.391040000000000054e+00
2.073137384534022021e-01 1.371186999999999934e+00
2.118516148918974384e-01 1.350360999999999922e+00
2.164888283105038391e-01 1.330500000000000016e+00
2.212275340673810209e-01 1.312855000000000105e+00
2.260699835805370650e-01 1.298048000000000091e+00
2.310183752015635139e-01 1.286440999999999946e+00
2.360751096568884100e-01 1.278350000000000097e+00
2.412425341466744866e-01 1.274115000000000109e+00
2.465230998307618715e-01 1.274030999999999914e+00
2.519191833183147544e-01 1.277748000000000106e+00
2.574334553825345373e-01 1.283322999999999992e+00
2.630683822583526066e-01 1.287193000000000032e+00
2.688266710467492326e-01 1.285763999999999907e+00
2.747110108843249798e-01 1.277489000000000097e+00
2.807241335168895180e-01 1.263913999999999982e+00
2.868688920234096495e-01 1.249106999999999967e+00
2.931481028187655768e-01 1.237797999999999954e+00
2.995647922697904919e-01 1.233249000000000040e+00
3.061219491886544297e-01 1.236037000000000052e+00
3.128225983045015424e-01 1.243996000000000102e+00
3.196699982673885665e-01 1.253319000000000072e+00
3.266672524899394969e-01 1.260756999999999906e+00
3.338175913859038335e-01 1.265557000000000043e+00
3.411245032800827026e-01 1.269314000000000053e+00
3.485912903071751723e-01 1.274218999999999991e+00
3.562216425308692980e-01 1.282040000000000068e+00
3.640189144227933826e-01 1.294526000000000066e+00
3.719868599361595973e-01 1.313916000000000084e+00
3.801292743636255911e-01 1.342535000000000034e+00
3.884498326752345854e-01 1.381739999999999968e+00
3.969526737144291051e-01 1.430997999999999992e+00
4.056414997215270768e-01 1.487673000000000023e+00
4.145204868460213854e-01 1.548000999999999960e+00
4.235940173275368759e-01 1.609250000000000069e+00
4.328659535344370757e-01 1.671273999999999926e+00
4.423408678727827614e-01 1.735246000000000066e+00
4.520233696082087693e-01 1.800753999999999966e+00
4.619176604055267865e-01 1.864543999999999979e+00
4.720285331807737017e-01 1.922673999999999994e+00
4.823605567984378673e-01 1.974488000000000021e+00
4.929189725005434508e-01 2.023651999999999784e+00
5.037085542305222985e-01 2.074736000000000136e+00
5.147340034826902722e-01 2.129303999999999863e+00
5.260010193899755659e-01 2.184553999999999885e+00
5.375147682182568332e-01 2.234703999999999802e+00
5.492803329078241870e-01 2.274478000000000222e+00
5.613033013614973088e-01 2.303173000000000137e+00
5.735898580135665448e-01 2.326090000000000213e+00
5.861448258358571417e-01 2.351653999999999911e+00
5.989749143316128732e-01 2.386356999999999839e+00
6.120861303119130570e-01 2.431226000000000109e+00
6.254839682204105245e-01 2.481958999999999804e+00
6.391749019026319312e-01 2.532258000000000120e+00
6.531657310067570110e-01 2.577939000000000203e+00
6.674631727194452191e-01 2.618498999999999910e+00
6.820728740300071591e-01 2.655295000000000183e+00
6.970030263871405118e-01 2.688800000000000079e+00
7.122593364734473020e-01 2.717274000000000189e+00
7.278502433567288765e-01 2.737312999999999885e+00
7.437819826252529687e-01 2.745448000000000111e+00
7.600626595656545526e-01 2.739831000000000127e+00
7.766996323880640540e-01 2.720943999999999807e+00
7.937005574159013976e-01 2.690755999999999926e+00
8.110740810733430006e-01 2.651365999999999890e+00
8.288272757110509703e-01 2.604588000000000125e+00
8.469695429752346350e-01 2.552580999999999989e+00
8.655086161382736787e-01 2.498387999999999831e+00
8.844540397880493732e-01 2.445415999999999812e+00
9.038134601323364326e-01 2.396017000000000063e+00
9.235972635660274488e-01 2.350359000000000087e+00
9.438138195107080852e-01 2.307097999999999871e+00
9.644726842046378312e-01 2.265766000000000169e+00
9.855838648094324972e-01 2.228597999999999857e+00
1.007156856623164121e+00 2.199723000000000095e+00
1.029202594413900052e+00 2.181998000000000104e+00
1.051730412046940843e+00 2.173528000000000127e+00
1.074752242739242414e+00 2.166293000000000024e+00
1.098277132661993116e+00 2.148480000000000167e+00
1.122316821060050707e+00 2.110044999999999948e+00
1.146883687643933891e+00 2.048096999999999834e+00
1.171988078537265165e+00 1.968261000000000038e+00
1.197640647923590596e+00 1.881518000000000024e+00
1.223856887071053556e+00 1.799293999999999949e+00
1.250645645814651763e+00 1.729807000000000095e+00
1.278020601692099190e+00 1.676557000000000075e+00
1.305994514823037633e+00 1.638203999999999994e+00
1.334582502555725414e+00 1.609396999999999966e+00
1.363795059788775355e+00 1.582815000000000083e+00
1.393646643680787944e+00 1.552175000000000082e+00
1.424152486855072564e+00 1.515125999999999973e+00
1.455324450032890349e+00 1.474518999999999913e+00
1.487179029585939727e+00 1.437035999999999980e+00
1.519733742648287977e+00 1.409694000000000003e+00
1.552997595959721311e+00 1.396323999999999899e+00
1.586991746055928854e+00 1.396109000000000044e+00
1.621728568046108876e+00 1.404628999999999905e+00
1.657226002538870313e+00 1.416263999999999967e+00
1.693503044918474698e+00 1.426449999999999996e+00
1.730570880722132499e+00 1.433092999999999950e+00
1.768449794594556090e+00 1.436814999999999953e+00
1.807161419272292235e+00 1.439759999999999929e+00
1.846718657952616915e+00 1.443883999999999945e+00
1.887141395956233536e+00 1.450042999999999971e+00
1.928446905999783967e+00 1.458055000000000101e+00
1.970660801980119947e+00 1.467162000000000077e+00
2.013794492272063863e+00 1.476609999999999978e+00
2.057875696076454375e+00 1.486215000000000064e+00
2.102921167794182811e+00 1.496529999999999916e+00
2.148947875120341244e+00 1.508229999999999960e+00
2.195987491655247315e+00 1.520993000000000039e+00
2.244054377925685628e+00 1.532721000000000000e+00
2.293172994677545429e+00 1.539797000000000082e+00
2.343369202504593130e+00 1.538521999999999945e+00
2.394664687077192156e+00 1.527106000000000074e+00
2.447081854888045971e+00 1.506788000000000016e+00
2.500643915808320461e+00 1.481152999999999942e+00
2.555381505681890708e+00 1.454304999999999959e+00
2.611313778074887182e+00 1.429092000000000029e+00
2.668474113132628389e+00 1.406217999999999968e+00
2.726883526623927079e+00 1.384536999999999907e+00
2.786570957242854973e+00 1.362284999999999968e+00
2.847566896465314912e+00 1.338599000000000094e+00
2.909895098281706893e+00 1.314416000000000029e+00
2.973597428432943612e+00 1.292162999999999951e+00
3.038682427299522981e+00 1.274615000000000054e+00
3.105194680180473732e+00 1.263792000000000026e+00
3.173162659491088000e+00 1.260396000000000072e+00
3.242626267866870915e+00 1.263797000000000059e+00
3.313595350363004233e+00 1.272415999999999991e+00
3.386134456627003964e+00 1.284286999999999956e+00
3.460243531939777739e+00 1.297558999999999907e+00
3.535992871438371044e+00 1.310813000000000006e+00
3.613382523514086397e+00 1.322901000000000105e+00
3.692475841976804229e+00 1.332279999999999909e+00
3.773300128292204736e+00 1.336719999999999908e+00
3.855897402281920350e+00 1.334055999999999909e+00
3.940296625529969621e+00 1.323520999999999948e+00
4.026542971266589888e+00 1.306569000000000091e+00
4.114684485993613805e+00 1.286655000000000104e+00
4.204754736656211023e+00 1.268122999999999889e+00
4.296787721499407020e+00 1.254815999999999931e+00
4.390837200929101236e+00 1.249012999999999929e+00
4.486960891648868355e+00 1.251106000000000051e+00
4.585157844058781684e+00 1.260091999999999990e+00
4.685530612914259763e+00 1.274537999999999949e+00
4.788102522851219511e+00 1.293328000000000033e+00
4.892894538551115780e+00 1.315655999999999937e+00
