# frequency(Hz) HVamp
2.000000000000000042e-02 9.544259999999999966e-01
2.043777802275861116e-02 9.576970000000000205e-01
2.088513892042544867e-02 9.666759999999999797e-01
2.134229185993890415e-02 9.804840000000000222e-01
2.180945121728470465e-02 9.966500000000000359e-01
2.228683671448790371e-02 1.013212999999999919e+00
2.277467095838639488e-02 1.031193000000000026e+00
2.327318386720582041e-02 1.054797999999999902e+00
2.378260869151607032e-02 1.088017000000000012e+00
2.430318396985316209e-02 1.131864999999999899e+00
2.483515418061077798e-02 1.181745999999999963e+00
2.537876860438217572e-02 1.227219000000000060e+00
2.593428185548686538e-02 1.256849000000000105e+00
2.650195524800330604e-02 1.265017999999999976e+00
2.708205410122367304e-02 1.255263000000000018e+00
2.767485116257483238e-02 1.237373000000000056e+00
2.828062296556268368e-02 1.221327999999999969e+00
2.889965516642458918e-02 1.212855999999999934e+00
2.953223712425469966e-02 1.212781000000000109e+00
3.017866585007221089e-02 1.219143000000000088e+00
3.083924344304486698e-02 1.229097000000000106e+00
3.151428172097601316e-02 1.239548000000000094e+00
3.220409460893151193e-02 1.247354000000000074e+00
3.290900679366954434e-02 1.249430000000000041e+00
3.362935008254323843e-02 1.243209999999999926e+00
3.436545982617606604e-02 1.227651000000000048e+00
3.511768145762538679e-02 1.204036000000000106e+00
3.588636982920923035e-02 1.175613999999999937e+00
3.667188287528685281e-02 1.146031000000000022e+00
3.747459035401046190e-02 1.117823999999999929e+00
3.829486888200696326e-02 1.091881000000000101e+00
3.913310161841203338e-02 1.068095000000000017e+00
3.998968266187323539e-02 1.046340000000000048e+00
4.086501260624340881e-02 1.026213999999999960e+00
4.175950326235679244e-02 1.007304999999999895e+00
4.267357455111880221e-02 9.913159999999999750e-01
4.360765235805109941e-02 9.831260000000000554e-01
4.456217573218773653e-02 9.874249999999999972e-01
4.553759360593897382e-02 1.002960999999999991e+00
4.653436264861679494e-02 1.020467999999999931e+00
4.755294901990994583e-02 1.026823999999999959e+00
4.859383060501651364e-02 1.012926999999999911e+00
4.965749734357217948e-02 9.799330000000000540e-01
5.074444382592605690e-02 9.372509999999999453e-01
5.185518671652646766e-02 8.952550000000000230e-01
5.299023919793973553e-02 8.605810000000000404e-01
5.415013688613103116e-02 8.346000000000000085e-01
5.533542508618215922e-02 8.138769999999999616e-01
5.654665825930951795e-02 7.920270000000000366e-01
5.778440269534190765e-02 7.624400000000000066e-01
5.904923992113619846e-02 7.217200000000000282e-01
6.034176368113722960e-02 6.718650000000000455e-01
6.166257977365023624e-02 6.180109999999999770e-01
6.301230579922413588e-02 5.652300000000000102e-01
6.439157495481964699e-02 5.176380000000000425e-01
6.580103648476649802e-02 4.781630000000000047e-01
6.724135160227064090e-02 4.478300000000000058e-01
6.871319291929786632e-02 4.246860000000000079e-01
7.021724865648072689e-02 4.041520000000000112e-01
7.175422799231455373e-02 3.817720000000000002e-01
7.332484622679873165e-02 3.561090000000000089e-01
7.492985067379918929e-02 3.285319999999999907e-01
7.656998328017844413e-02 2.998140000000000249e-01
7.824601847091161577e-02 2.679840000000000000e-01
7.995873489609482687e-02 2.300999999999999990e-01
8.170894587125514252e-02 1.853309999999999957e-01
8.349746848200181870e-02 1.365790000000000060e-01
8.532513483931059017e-02 8.977799999999999669e-02
8.719280666320453066e-02 5.132400000000000156e-02
8.910136197668877545e-02 2.464399999999999924e-02
9.105169441740208758e-02 7.706000000000000176e-03
9.304472101470850909e-02 -5.960000000000000020e-03
9.508136492722282784e-02 -2.292599999999999846e-02
9.716259003207046441e-02 -4.698399999999999799e-02
9.928937600698042876e-02 -7.881599999999999717e-02
1.014627169666056788e-01 -1.157740000000000019e-01
1.036836198025345573e-01 -1.518269999999999897e-01
1.059531470945422049e-01 -1.793949999999999989e-01
1.082723426204657002e-01 -1.932419999999999971e-01
1.106423073612318730e-01 -1.938249999999999973e-01
1.130641434367904014e-01 -1.870090000000000086e-01
1.155389888050807612e-01 -1.802080000000000071e-01
1.180680199308263012e-01 -1.780210000000000126e-01
1.206523964642573915e-01 -1.804999999999999938e-01
1.232933427266421494e-01 -1.849459999999999993e-01
1.259921091142061633e-01 -1.895670000000000133e-01
1.287499385219043613e-01 -1.957820000000000116e-01
1.315681276210838024e-01 -2.071759999999999990e-01
1.344480149355610776e-01 -2.259829999999999894e-01
1.373909270603933253e-01 -2.501329999999999942e-01
1.403982677661723133e-01 -2.733490000000000086e-01
1.434714465996406174e-01 -2.882950000000000235e-01
1.466118729226930095e-01 -2.908959999999999879e-01
1.498210387691902012e-01 -2.828559999999999963e-01
1.531004603883944215e-01 -2.704509999999999970e-01
1.564516759885790365e-01 -2.607090000000000241e-01
1.598762174374112610e-01 -2.578380000000000116e-01
1.633757347823671657e-01 -2.617140000000000022e-01
1.669518482487836186e-01 -2.686810000000000032e-01
1.706062493069121222e-01 -2.741509999999999780e-01
1.743406480276755433e-01 -2.751629999999999909e-01
1.781567686922972404e-01 -2.702729999999999855e-01
1.820564109071452219e-01 -2.575060000000000127e-01
1.860414236112984399e-01 -2.341870000000000063e-01
1.901136708649468487e-01 -1.994150000000000089e-01
1.942750635716576912e-01 -1.560219999999999940e-01
1.985275213739692568e-01 -1.099139999999999978e-01
2.028730886819132551e-01 -6.778800000000000103e-02
2.073137384534022021e-01 -3.474499999999999811e-02
2.118516148918974384e-01 -1.275500000000000071e-02
2.164888283105038391e-01 -4.420000000000000101e-04
2.212275340673810209e-01 6.579999999999999911e-03
2.260699835805370650e-01 1.577800000000000036e-02
2.310183752015635139e-01 3.667999999999999733e-02
2.360751096568884100e-01 7.659199999999999342e-02
2.412425341466744866e-01 1.351970000000000116e-01
2.465230998307618715e-01 2.042390000000000039e-01
2.519191833183147544e-01 2.734300000000000064e-01
2.574334553825345373e-01 3.363019999999999898e-01
2.630683822583526066e-01 3.914130000000000109e-01
2.688266710467492326e-01 4.402730000000000254e-01
2.747110108843249798e-01 4.850800000000000112e-01
2.807241335168895180e-01 5.275579999999999714e-01
2.868688920234096495e-01 5.685839999999999783e-01
2.931481028187655768e-01 6.081659999999999844e-01
2.995647922697904919e-01 6.454739999999999922e-01
3.061219491886544297e-01 6.787180000000000435e-01
3.128225983045015424e-01 7.054979999999999585e-01
3.196699982673885665e-01 7.242819999999999814e-01
3.266672524899394969e-01 7.363840000000000385e-01
3.338175913859038335e-01 7.469179999999999708e-01
3.411245032800827026e-01 7.632790000000000408e-01
3.485912903071751723e-01 7.912540000000000129e-01
3.562216425308692980e-01 8.319180000000000463e-01
3.640189144227933826e-01 8.822919999999999652e-01
3.719868599361595973e-01 9.381909999999999972e-01
3.801292743636255911e-01 9.959630000000000427e-01
3.884498326752345854e-01 1.052300000000000013e+00
3.969526737144291051e-01 1.103542999999999941e+00
4.056414997215270768e-01 1.145990999999999982e+00
4.145204868460213854e-01 1.177227000000000023e+00
4.235940173275368759e-01 1.197480000000000100e+00
4.328659535344370757e-01 1.210037999999999947e+00
4.423408678727827614e-01 1.220053000000000054e+00
4.520233696082087693e-01 1.232007000000000074e+00
4.619176604055267865e-01 1.247249999999999970e+00
4.720285331807737017e-01 1.263535000000000075e+00
4.823605567984378673e-01 1.277293000000000012e+00
4.929189725005434508e-01 1.286988000000000021e+00
5.037085542305222985e-01 1.294782000000000100e+00
5.147340034826902722e-01 1.305121999999999893e+00
5.260010193899755659e-01 1.321301999999999977e+00
5.375147682182568332e-01 1.342467000000000077e+00
5.492803329078241870e-01 1.363412000000000068e+00
5.613033013614973088e-01 1.377580000000000027e+00
5.735898580135665448e-01 1.380937000000000081e+00
5.861448258358571417e-01 1.373855000000000048e+00
5.989749143316128732e-01 1.359957000000000082e+00
6.120861303119130570e-01 1.343039000000000094e+00
6.254839682204105245e-01 1.324364000000000097e+00
6.391749019026319312e-01 1.302235999999999949e+00
6.531657310067570110e-01 1.274110000000000076e+00
6.674631727194452191e-01 1.239619000000000026e+00
6.820728740300071591e-01 1.202121999999999913e+00
6.970030263871405118e-01 1.167383000000000060e+00
7.122593364734473020e-01 1.140333999999999959e+00
7.278502433567288765e-01 1.122422999999999949e+00
7.437819826252529687e-01 1.111456000000000000e+00
7.600626595656545526e-01 1.103817999999999966e+00
7.766996323880640540e-01 1.097080999999999973e+00
7.937005574159013976e-01 1.091005999999999920e+00
8.110740810733430006e-01 1.086414999999999909e+00
8.288272757110509703e-01 1.083018000000000036e+00
8.469695429752346350e-01 1.078392999999999935e+00
8.655086161382736787e-01 1.069396000000000013e+00
8.844540397880493732e-01 1.055010000000000003e+00
9.038134601323364326e-01 1.037895000000000012e+00
9.235972635660274488e-01 1.023017999999999983e+00
9.438138195107080852e-01 1.014623000000000053e+00
9.644726842046378312e-01 1.014175000000000049e+00
9.855838648094324972e-01 1.020340000000000025e+00
1.007156856623164121e+00 1.030299000000000076e+00
1.029202594413900052e+00 1.041223000000000010e+00
1.051730412046940843e+00 1.051036000000000081e+00
1.074752242739242414e+00 1.058656000000000041e+00
1.098277132661993116e+00 1.064297999999999966e+00
1.122316821060050707e+00 1.069601000000000024e+00
1.146883687643933891e+00 1.077132999999999896e+00
1.171988078537265165e+00 1.089220999999999995e+00
1.197640647923590596e+00 1.106692999999999927e+00
1.223856887071053556e+00 1.128411000000000053e+00
1.250645645814651763e+00 1.151934999999999931e+00
1.278020601692099190e+00 1.174887999999999932e+00
1.305994514823037633e+00 1.196207999999999938e+00
1.334582502555725414e+00 1.216642999999999919e+00
1.363795059788775355e+00 1.238337000000000021e+00
1.393646643680787944e+00 1.263824999999999976e+00
1.424152486855072564e+00 1.294880000000000031e+00
1.455324450032890349e+00 1.331782999999999939e+00
1.487179029585939727e+00 1.373304999999999998e+00
1.519733742648287977e+00 1.417054999999999954e+00
1.552997595959721311e+00 1.460007000000000055e+00
1.586991746055928854e+00 1.499560000000000004e+00
1.621728568046108876e+00 1.535166999999999948e+00
1.657226002538870313e+00 1.569482999999999961e+00
1.693503044918474698e+00 1.607877999999999918e+00
1.730570880722132499e+00 1.656416000000000111e+00
1.768449794594556090e+00 1.718952000000000035e+00
1.807161419272292235e+00 1.794421999999999962e+00
1.846718657952616915e+00 1.876181000000000099e+00
1.887141395956233536e+00 1.954682999999999948e+00
1.928446905999783967e+00 2.021936000000000178e+00
1.970660801980119947e+00 2.074409000000000169e+00
2.013794492272063863e+00 2.112998000000000154e+00
2.057875696076454375e+00 2.141404000000000085e+00
2.102921167794182811e+00 2.164292999999999800e+00
2.148947875120341244e+00 2.185156999999999794e+00
2.195987491655247315e+00 2.204137999999999931e+00
2.244054377925685628e+00 2.217166999999999888e+00
2.293172994677545429e+00 2.217874999999999819e+00
2.343369202504593130e+00 2.202010000000000023e+00
2.394664687077192156e+00 2.170754000000000072e+00
2.447081854888045971e+00 2.129167999999999950e+00
2.500643915808320461e+00 2.081831999999999905e+00
2.555381505681890708e+00 2.030574000000000101e+00
2.611313778074887182e+00 1.975689999999999946e+00
2.668474113132628389e+00 1.918357000000000090e+00
2.726883526623927079e+00 1.861533000000000104e+00
2.786570957242854973e+00 1.808963000000000099e+00
2.847566896465314912e+00 1.763530999999999960e+00
2.909895098281706893e+00 1.725780000000000092e+00
2.973597428432943612e+00 1.693222999999999923e+00
3.038682427299522981e+00 1.660997999999999974e+00
3.105194680180473732e+00 1.623610999999999915e+00
3.173162659491088000e+00 1.577140999999999904e+00
3.242626267866870915e+00 1.521133999999999986e+00
3.313595350363004233e+00 1.459135999999999989e+00
3.386134456627003964e+00 1.397431000000000090e+00
3.460243531939777739e+00 1.342578999999999967e+00
3.535992871438371044e+00 1.299129999999999896e+00
3.613382523514086397e+00 1.268440000000000012e+00
3.692475841976804229e+00 1.248663999999999996e+00
3.773300128292204736e+00 1.235654999999999948e+00
3.855897402281920350e+00 1.224490999999999996e+00
3.940296625529969621e+00 1.211322999999999928e+00
4.026542971266589888e+00 1.194822000000000051e+00
4.114684485993613805e+00 1.176371999999999973e+00
4.204754736656211023e+00 1.158994000000000080e+00
4.296787721499407020e+00 1.145834999999999937e+00
4.390837200929101236e+00 1.139056999999999986e+00
4.486960891648868355e+00 1.139401000000000108e+00
4.585157844058781684e+00 1.146255999999999942e+00
4.685530612914259763e+00 1.158104999999999940e+00
4.788102522851219511e+00 1.173010000000000108e+00
4.892894538551115780e+00 1.188803999999999972e+00
