# frequency(Hz) HVamp
2.000000000000000042e-02 1.195934000000000053e+00
2.043777802275861116e-02 1.218301000000000078e+00
2.088513892042544867e-02 1.241692999999999936e+00
2.134229185993890415e-02 1.264377000000000084e+00
2.180945121728470465e-02 1.284237999999999991e+00
2.228683671448790371e-02 1.300764000000000031e+00
2.277467095838639488e-02 1.315998999999999919e+00
2.327318386720582041e-02 1.332794999999999952e+00
2.378260869151607032e-02 1.352052000000000032e+00
2.430318396985316209e-02 1.373861999999999917e+00
2.483515418061077798e-02 1.399623000000000062e+00
2.537876860438217572e-02 1.430986000000000091e+00
2.593428185548686538e-02 1.467994999999999939e+00
2.650195524800330604e-02 1.509136999999999951e+00
2.708205410122367304e-02 1.552203999999999917e+00
2.767485116257483238e-02 1.594481999999999955e+00
2.828062296556268368e-02 1.633618999999999932e+00
2.889965516642458918e-02 1.669334000000000096e+00
2.953223712425469966e-02 1.703432000000000057e+00
3.017866585007221089e-02 1.737568999999999919e+00
3.083924344304486698e-02 1.771568999999999949e+00
3.151428172097601316e-02 1.804240000000000066e+00
3.220409460893151193e-02 1.835333000000000103e+00
3.290900679366954434e-02 1.866371000000000002e+00
3.362935008254323843e-02 1.900017999999999985e+00
3.436545982617606604e-02 1.939246999999999943e+00
3.511768145762538679e-02 1.987112999999999907e+00
3.588636982920923035e-02 2.046842999999999968e+00
3.667188287528685281e-02 2.120535999999999976e+00
3.747459035401046190e-02 2.205915000000000070e+00
3.829486888200696326e-02 2.294906999999999808e+00
3.913310161841203338e-02 2.375687999999999800e+00
3.998968266187323539e-02 2.435753000000000057e+00
4.086501260624340881e-02 2.464439000000000046e+00
4.175950326235679244e-02 2.454858999999999902e+00
4.267357455111880221e-02 2.405940999999999885e+00
4.360765235805109941e-02 2.324683999999999973e+00
4.456217573218773653e-02 2.226043000000000216e+00
4.553759360593897382e-02 2.127409000000000106e+00
4.653436264861679494e-02 2.041075000000000195e+00
4.755294901990994583e-02 1.971527000000000029e+00
4.859383060501651364e-02 1.918239000000000027e+00
4.965749734357217948e-02 1.878784000000000010e+00
5.074444382592605690e-02 1.850206999999999935e+00
5.185518671652646766e-02 1.829123000000000054e+00
5.299023919793973553e-02 1.811077999999999966e+00
5.415013688613103116e-02 1.791581000000000090e+00
5.533542508618215922e-02 1.768302999999999958e+00
5.654665825930951795e-02 1.741605999999999987e+00
5.778440269534190765e-02 1.713357999999999937e+00
5.904923992113619846e-02 1.685348000000000068e+00
6.034176368113722960e-02 1.658225000000000060e+00
6.166257977365023624e-02 1.631801999999999975e+00
6.301230579922413588e-02 1.606325000000000003e+00
6.439157495481964699e-02 1.582762999999999920e+00
6.580103648476649802e-02 1.562427999999999928e+00
6.724135160227064090e-02 1.547268000000000088e+00
6.871319291929786632e-02 1.540593000000000101e+00
7.021724865648072689e-02 1.546281000000000017e+00
7.175422799231455373e-02 1.566389000000000031e+00
7.332484622679873165e-02 1.599534000000000011e+00
7.492985067379918929e-02 1.641597999999999891e+00
7.656998328017844413e-02 1.687835999999999892e+00
7.824601847091161577e-02 1.734250000000000069e+00
7.995873489609482687e-02 1.778053000000000106e+00
8.170894587125514252e-02 1.818028999999999895e+00
8.349746848200181870e-02 1.854066999999999910e+00
8.532513483931059017e-02 1.885912999999999951e+00
8.719280666320453066e-02 1.912547999999999915e+00
8.910136197668877545e-02 1.933302999999999994e+00
9.105169441740208758e-02 1.949557999999999902e+00
9.304472101470850909e-02 1.964596000000000009e+00
9.508136492722282784e-02 1.981929000000000052e+00
9.716259003207046441e-02 2.004556000000000004e+00
9.928937600698042876e-02 2.034333000000000169e+00
1.014627169666056788e-01 2.069834000000000174e+00
1.036836198025345573e-01 2.104093999999999909e+00
1.059531470945422049e-01 2.125561999999999951e+00
1.082723426204657002e-01 2.123690999999999995e+00
1.106423073612318730e-01 2.095556999999999892e+00
1.130641434367904014e-01 2.047506999999999966e+00
1.155389888050807612e-01 1.990598000000000090e+00
1.180680199308263012e-01 1.934128000000000069e+00
1.206523964642573915e-01 1.881790999999999991e+00
1.232933427266421494e-01 1.831820000000000004e+00
1.259921091142061633e-01 1.780043999999999960e+00
1.287499385219043613e-01 1.723527999999999949e+00
1.315681276210838024e-01 1.662193999999999949e+00
1.344480149355610776e-01 1.597839000000000009e+00
1.373909270603933253e-01 1.532677999999999985e+00
1.403982677661723133e-01 1.468865000000000087e+00
1.434714465996406174e-01 1.408209000000000044e+00
1.466118729226930095e-01 1.351612999999999953e+00
1.498210387691902012e-01 1.298893000000000075e+00
1.531004603883944215e-01 1.249236999999999931e+00
1.564516759885790365e-01 1.202036000000000104e+00
1.598762174374112610e-01 1.157496999999999998e+00
1.633757347823671657e-01 1.116451000000000082e+00
1.669518482487836186e-01 1.079460000000000086e+00
1.706062493069121222e-01 1.046087999999999907e+00
1.743406480276755433e-01 1.015208000000000110e+00
1.781567686922972404e-01 9.862739999999999840e-01
1.820564109071452219e-01 9.604230000000000267e-01
1.860414236112984399e-01 9.399729999999999475e-01
1.901136708649468487e-01 9.264999999999999902e-01
1.942750635716576912e-01 9.191219999999999946e-01
1.985275213739692568e-01 9.144480000000000386e-01
2.028730886819132551e-01 9.082970000000000210e-01
2.073137384534022021e-01 8.980430000000000357e-01
2.118516148918974384e-01 8.840789999999999482e-01
2.164888283105038391e-01 8.696620000000000461e-01
2.212275340673810209e-01 8.591440000000000188e-01
2.260699835805370650e-01 8.554570000000000229e-01
2.310183752015635139e-01 8.583439999999999959e-01
2.360751096568884100e-01 8.643589999999999884e-01
2.412425341466744866e-01 8.686350000000000460e-01
2.465230998307618715e-01 8.675340000000000273e-01
2.519191833183147544e-01 8.607230000000000159e-01
2.574334553825345373e-01 8.512929999999999664e-01
2.630683822583526066e-01 8.436709999999999487e-01
2.688266710467492326e-01 8.407050000000000356e-01
2.747110108843249798e-01 8.419489999999999474e-01
2.807241335168895180e-01 8.442600000000000104e-01
2.868688920234096495e-01 8.439489999999999492e-01
2.931481028187655768e-01 8.389579999999999815e-01
2.995647922697904919e-01 8.297550000000000203e-01
3.061219491886544297e-01 8.186020000000000518e-01
3.128225983045015424e-01 8.081409999999999982e-01
3.196699982673885665e-01 8.005240000000000133e-01
3.266672524899394969e-01 7.972590000000000510e-01
3.338175913859038335e-01 7.990880000000000205e-01
3.411245032800827026e-01 8.055909999999999460e-01
3.485912903071751723e-01 8.148870000000000280e-01
3.562216425308692980e-01 8.241000000000000547e-01
3.640189144227933826e-01 8.306390000000000162e-01
3.719868599361595973e-01 8.332910000000000039e-01
3.801292743636255911e-01 8.323620000000000463e-01
3.884498326752345854e-01 8.292079999999999451e-01
3.969526737144291051e-01 8.256550000000000278e-01
4.056414997215270768e-01 8.235780000000000323e-01
4.145204868460213854e-01 8.245500000000000052e-01
4.235940173275368759e-01 8.293160000000000531e-01
4.328659535344370757e-01 8.373059999999999947e-01
4.423408678727827614e-01 8.466709999999999514e-01
4.520233696082087693e-01 8.550759999999999472e-01
4.619176604055267865e-01 8.609229999999999938e-01
4.720285331807737017e-01 8.641189999999999705e-01
4.823605567984378673e-01 8.657679999999999820e-01
4.929189725005434508e-01 8.671450000000000546e-01
5.037085542305222985e-01 8.685789999999999900e-01
5.147340034826902722e-01 8.688540000000000152e-01
5.260010193899755659e-01 8.656409999999999938e-01
5.375147682182568332e-01 8.568689999999999918e-01
5.492803329078241870e-01 8.420959999999999557e-01
5.613033013614973088e-01 8.228849999999999776e-01
5.735898580135665448e-01 8.020460000000000367e-01
5.861448258358571417e-01 7.822369999999999601e-01
5.989749143316128732e-01 7.648190000000000266e-01
6.120861303119130570e-01 7.496530000000000138e-01
6.254839682204105245e-01 7.358430000000000248e-01
6.391749019026319312e-01 7.227599999999999580e-01
6.531657310067570110e-01 7.106430000000000247e-01
6.674631727194452191e-01 7.005810000000000093e-01
6.820728740300071591e-01 6.940439999999999943e-01
6.970030263871405118e-01 6.921100000000000030e-01
7.122593364734473020e-01 6.948680000000000412e-01
7.278502433567288765e-01 7.015550000000000397e-01
7.437819826252529687e-01 7.111990000000000256e-01
7.600626595656545526e-01 7.230090000000000128e-01
7.766996323880640540e-01 7.363899999999999890e-01
7.937005574159013976e-01 7.509059999999999624e-01
8.110740810733430006e-01 7.661210000000000520e-01
8.288272757110509703e-01 7.814100000000000490e-01
8.469695429752346350e-01 7.963099999999999623e-01
8.655086161382736787e-01 8.113169999999999549e-01
8.844540397880493732e-01 8.281570000000000320e-01
9.038134601323364326e-01 8.490130000000000177e-01
9.235972635660274488e-01 8.753800000000000470e-01
9.438138195107080852e-01 9.076359999999999983e-01
9.644726842046378312e-01 9.455379999999999896e-01
9.855838648094324972e-01 9.889499999999999957e-01
1.007156856623164121e+00 1.038229999999999986e+00
1.029202594413900052e+00 1.094155999999999906e+00
1.051730412046940843e+00 1.157478000000000007e+00
1.074752242739242414e+00 1.228374000000000077e+00
1.098277132661993116e+00 1.306108999999999964e+00
1.122316821060050707e+00 1.388870000000000049e+00
1.146883687643933891e+00 1.473770999999999942e+00
1.171988078537265165e+00 1.557306999999999997e+00
1.197640647923590596e+00 1.636476999999999959e+00
1.223856887071053556e+00 1.710156999999999927e+00
1.250645645814651763e+00 1.779835999999999974e+00
1.278020601692099190e+00 1.849156000000000022e+00
1.305994514823037633e+00 1.922349000000000085e+00
1.334582502555725414e+00 2.002067999999999959e+00
1.363795059788775355e+00 2.087209999999999788e+00
1.393646643680787944e+00 2.172082000000000068e+00
1.424152486855072564e+00 2.248702000000000201e+00
1.455324450032890349e+00 2.311814000000000036e+00
1.487179029585939727e+00 2.362681999999999949e+00
1.519733742648287977e+00 2.407970000000000166e+00
1.552997595959721311e+00 2.454915000000000180e+00
1.586991746055928854e+00 2.507353000000000165e+00
1.621728568046108876e+00 2.565259000000000178e+00
1.657226002538870313e+00 2.626761000000000124e+00
1.693503044918474698e+00 2.690214000000000105e+00
1.730570880722132499e+00 2.754583999999999921e+00
1.768449794594556090e+00 2.817989999999999995e+00
1.807161419272292235e+00 2.876151999999999820e+00
1.846718657952616915e+00 2.922588000000000186e+00
1.887141395956233536e+00 2.950403000000000109e+00
1.928446905999783967e+00 2.954753999999999881e+00
1.970660801980119947e+00 2.934889000000000081e+00
2.013794492272063863e+00 2.894451000000000107e+00
2.057875696076454375e+00 2.840348999999999791e+00
2.102921167794182811e+00 2.781385999999999914e+00
2.148947875120341244e+00 2.726620000000000044e+00
2.195987491655247315e+00 2.682782000000000000e+00
2.244054377925685628e+00 2.651215999999999795e+00
2.293172994677545429e+00 2.626669999999999838e+00
2.343369202504593130e+00 2.600061999999999873e+00
2.394664687077192156e+00 2.563935999999999993e+00
2.447081854888045971e+00 2.516239999999999810e+00
2.500643915808320461e+00 2.459913999999999934e+00
2.555381505681890708e+00 2.400011999999999812e+00
2.611313778074887182e+00 2.341034000000000059e+00
2.668474113132628389e+00 2.285680000000000156e+00
2.726883526623927079e+00 2.234871000000000052e+00
2.786570957242854973e+00 2.188639999999999919e+00
2.847566896465314912e+00 2.147107999999999794e+00
2.909895098281706893e+00 2.110383000000000120e+00
2.973597428432943612e+00 2.077233000000000107e+00
3.038682427299522981e+00 2.043839999999999879e+00
3.105194680180473732e+00 2.004268999999999856e+00
3.173162659491088000e+00 1.953001999999999905e+00
3.242626267866870915e+00 1.888031000000000015e+00
3.313595350363004233e+00 1.812375999999999987e+00
3.386134456627003964e+00 1.733151000000000108e+00
3.460243531939777739e+00 1.658876000000000017e+00
3.535992871438371044e+00 1.596626000000000101e+00
3.613382523514086397e+00 1.550157999999999925e+00
3.692475841976804229e+00 1.519350999999999896e+00
3.773300128292204736e+00 1.500852999999999993e+00
3.855897402281920350e+00 1.489548000000000094e+00
3.940296625529969621e+00 1.480323999999999973e+00
4.026542971266589888e+00 1.469675000000000065e+00
4.114684485993613805e+00 1.456566000000000027e+00
4.204754736656211023e+00 1.442153000000000018e+00
4.296787721499407020e+00 1.428704999999999892e+00
4.390837200929101236e+00 1.418385000000000007e+00
4.486960891648868355e+00 1.412414999999999976e+00
4.585157844058781684e+00 1.410803000000000029e+00
4.685530612914259763e+00 1.412517999999999940e+00
4.788102522851219511e+00 1.415874000000000077e+00
4.892894538551115780e+00 1.418905000000000083e+00
