# frequency(Hz) HVamp
2.000000000000000042e-02 9.949580000000000091e-01
2.043777802275861116e-02 9.984049999999999869e-01
2.088513892042544867e-02 1.010482000000000102e+00
2.134229185993890415e-02 1.025117000000000056e+00
2.180945121728470465e-02 1.038532999999999928e+00
2.228683671448790371e-02 1.050353000000000092e+00
2.277467095838639488e-02 1.062016000000000071e+00
2.327318386720582041e-02 1.074969000000000063e+00
2.378260869151607032e-02 1.090173000000000059e+00
2.430318396985316209e-02 1.107911000000000090e+00
2.483515418061077798e-02 1.128074000000000021e+00
2.537876860438217572e-02 1.150857999999999937e+00
2.593428185548686538e-02 1.176835999999999993e+00
2.650195524800330604e-02 1.205986000000000002e+00
2.708205410122367304e-02 1.236863999999999963e+00
2.767485116257483238e-02 1.266504999999999992e+00
2.828062296556268368e-02 1.290947000000000067e+00
2.889965516642458918e-02 1.306564000000000059e+00
2.953223712425469966e-02 1.312372000000000094e+00
3.017866585007221089e-02 1.311495000000000077e+00
3.083924344304486698e-02 1.309889000000000081e+00
3.151428172097601316e-02 1.313326999999999911e+00
3.220409460893151193e-02 1.325034000000000045e+00
3.290900679366954434e-02 1.345182000000000100e+00
3.362935008254323843e-02 1.371515999999999957e+00
3.436545982617606604e-02 1.400063999999999975e+00
3.511768145762538679e-02 1.425567999999999946e+00
3.588636982920923035e-02 1.442318999999999907e+00
3.667188287528685281e-02 1.446150000000000047e+00
3.747459035401046190e-02 1.437330999999999914e+00
3.829486888200696326e-02 1.421670999999999907e+00
3.913310161841203338e-02 1.407596999999999987e+00
3.998968266187323539e-02 1.401669000000000054e+00
4.086501260624340881e-02 1.405907000000000018e+00
4.175950326235679244e-02 1.417564000000000046e+00
4.267357455111880221e-02 1.430849999999999955e+00
4.360765235805109941e-02 1.440102999999999911e+00
4.456217573218773653e-02 1.442744999999999944e+00
4.553759360593897382e-02 1.439823000000000075e+00
4.653436264861679494e-02 1.434218999999999911e+00
4.755294901990994583e-02 1.428760999999999948e+00
4.859383060501651364e-02 1.425491999999999981e+00
4.965749734357217948e-02 1.425966000000000067e+00
5.074444382592605690e-02 1.431273000000000017e+00
5.185518671652646766e-02 1.441249999999999920e+00
5.299023919793973553e-02 1.453897999999999913e+00
5.415013688613103116e-02 1.465368999999999922e+00
5.533542508618215922e-02 1.470755999999999952e+00
5.654665825930951795e-02 1.465586000000000055e+00
5.778440269534190765e-02 1.447360999999999898e+00
5.904923992113619846e-02 1.416555000000000009e+00
6.034176368113722960e-02 1.376773000000000025e+00
6.166257977365023624e-02 1.333962000000000092e+00
6.301230579922413588e-02 1.295039000000000051e+00
6.439157495481964699e-02 1.265686000000000089e+00
6.580103648476649802e-02 1.248010000000000064e+00
6.724135160227064090e-02 1.239780000000000104e+00
6.871319291929786632e-02 1.235386000000000095e+00
7.021724865648072689e-02 1.227808999999999928e+00
7.175422799231455373e-02 1.211500000000000021e+00
7.332484622679873165e-02 1.185194999999999999e+00
7.492985067379918929e-02 1.152355999999999936e+00
7.656998328017844413e-02 1.118435000000000068e+00
7.824601847091161577e-02 1.087603000000000097e+00
7.995873489609482687e-02 1.061779000000000028e+00
8.170894587125514252e-02 1.041523999999999894e+00
8.349746848200181870e-02 1.027001999999999970e+00
8.532513483931059017e-02 1.018016000000000032e+00
8.719280666320453066e-02 1.013689999999999980e+00
8.910136197668877545e-02 1.012960000000000083e+00
9.105169441740208758e-02 1.015382000000000007e+00
9.304472101470850909e-02 1.021163999999999961e+00
9.508136492722282784e-02 1.030747999999999998e+00
9.716259003207046441e-02 1.044627999999999890e+00
9.928937600698042876e-02 1.063406999999999991e+00
1.014627169666056788e-01 1.087609999999999966e+00
1.036836198025345573e-01 1.117405999999999899e+00
1.059531470945422049e-01 1.152527000000000079e+00
1.082723426204657002e-01 1.192255000000000065e+00
1.106423073612318730e-01 1.235519000000000034e+00
1.130641434367904014e-01 1.281190000000000051e+00
1.155389888050807612e-01 1.328211999999999948e+00
1.180680199308263012e-01 1.375266000000000099e+00
1.206523964642573915e-01 1.420374000000000025e+00
1.232933427266421494e-01 1.461443999999999965e+00
1.259921091142061633e-01 1.497811999999999921e+00
1.287499385219043613e-01 1.530893999999999977e+00
1.315681276210838024e-01 1.562759000000000009e+00
1.344480149355610776e-01 1.593728999999999951e+00
1.373909270603933253e-01 1.621075000000000044e+00
1.403982677661723133e-01 1.640322999999999976e+00
1.434714465996406174e-01 1.648811999999999944e+00
1.466118729226930095e-01 1.648613000000000106e+00
1.498210387691902012e-01 1.646233000000000057e+00
1.531004603883944215e-01 1.649904000000000037e+00
1.564516759885790365e-01 1.666536999999999935e+00
1.598762174374112610e-01 1.698905000000000109e+00
1.633757347823671657e-01 1.743263999999999925e+00
1.669518482487836186e-01 1.789125000000000076e+00
1.706062493069121222e-01 1.823067999999999911e+00
1.743406480276755433e-01 1.835391999999999912e+00
1.781567686922972404e-01 1.825209999999999999e+00
1.820564109071452219e-01 1.800364999999999993e+00
1.860414236112984399e-01 1.772332000000000019e+00
1.901136708649468487e-01 1.750556999999999919e+00
1.942750635716576912e-01 1.740077000000000096e+00
1.985275213739692568e-01 1.741918999999999995e+00
2.028730886819132551e-01 1.754210000000000047e+00
2.073137384534022021e-01 1.773514999999999953e+00
2.118516148918974384e-01 1.796011000000000024e+00
2.164888283105038391e-01 1.818062999999999985e+00
2.212275340673810209e-01 1.836738999999999900e+00
2.260699835805370650e-01 1.850230000000000041e+00
2.310183752015635139e-01 1.857270999999999894e+00
2.360751096568884100e-01 1.856254000000000071e+00
2.412425341466744866e-01 1.845520000000000049e+00
2.465230998307618715e-01 1.824643000000000015e+00
2.519191833183147544e-01 1.795711999999999975e+00
2.574334553825345373e-01 1.763568000000000024e+00
2.630683822583526066e-01 1.734175999999999940e+00
2.688266710467492326e-01 1.711880999999999986e+00
2.747110108843249798e-01 1.697724000000000011e+00
2.807241335168895180e-01 1.689877999999999991e+00
2.868688920234096495e-01 1.685162000000000049e+00
2.931481028187655768e-01 1.680085000000000051e+00
2.995647922697904919e-01 1.671691000000000038e+00
3.061219491886544297e-01 1.658876000000000017e+00
3.128225983045015424e-01 1.643108000000000013e+00
3.196699982673885665e-01 1.626980000000000093e+00
3.266672524899394969e-01 1.611440999999999901e+00
3.338175913859038335e-01 1.594405999999999990e+00
3.411245032800827026e-01 1.571987000000000023e+00
3.485912903071751723e-01 1.541211000000000109e+00
3.562216425308692980e-01 1.502364000000000033e+00
3.640189144227933826e-01 1.459281000000000050e+00
3.719868599361595973e-01 1.417394999999999960e+00
3.801292743636255911e-01 1.381266000000000105e+00
3.884498326752345854e-01 1.353331000000000062e+00
3.969526737144291051e-01 1.333998999999999935e+00
4.056414997215270768e-01 1.322205000000000075e+00
4.145204868460213854e-01 1.315725000000000033e+00
4.235940173275368759e-01 1.311366999999999949e+00
4.328659535344370757e-01 1.305592000000000086e+00
4.423408678727827614e-01 1.295787000000000022e+00
4.520233696082087693e-01 1.281392000000000087e+00
4.619176604055267865e-01 1.263687999999999922e+00
4.720285331807737017e-01 1.244475999999999916e+00
4.823605567984378673e-01 1.225279999999999925e+00
4.929189725005434508e-01 1.207470999999999961e+00
5.037085542305222985e-01 1.192152000000000100e+00
5.147340034826902722e-01 1.179291000000000089e+00
5.260010193899755659e-01 1.167313000000000045e+00
5.375147682182568332e-01 1.154206999999999983e+00
5.492803329078241870e-01 1.139428000000000107e+00
5.613033013614973088e-01 1.124743999999999966e+00
5.735898580135665448e-01 1.113234999999999975e+00
5.861448258358571417e-01 1.107115000000000071e+00
5.989749143316128732e-01 1.106030999999999986e+00
6.120861303119130570e-01 1.107148999999999939e+00
6.254839682204105245e-01 1.107348999999999917e+00
6.391749019026319312e-01 1.105957000000000079e+00
6.531657310067570110e-01 1.105447999999999986e+00
6.674631727194452191e-01 1.109353999999999951e+00
6.820728740300071591e-01 1.119513999999999898e+00
6.970030263871405118e-01 1.135048000000000057e+00
7.122593364734473020e-01 1.153277000000000108e+00
7.278502433567288765e-01 1.171321999999999974e+00
7.437819826252529687e-01 1.187176999999999927e+00
7.600626595656545526e-01 1.199969000000000063e+00
7.766996323880640540e-01 1.209657999999999900e+00
7.937005574159013976e-01 1.216148999999999925e+00
8.110740810733430006e-01 1.218358999999999970e+00
8.288272757110509703e-01 1.214784000000000086e+00
8.469695429752346350e-01 1.205975000000000019e+00
8.655086161382736787e-01 1.196582999999999952e+00
8.844540397880493732e-01 1.194355000000000055e+00
9.038134601323364326e-01 1.206522000000000094e+00
9.235972635660274488e-01 1.236426000000000025e+00
9.438138195107080852e-01 1.283018999999999910e+00
9.644726842046378312e-01 1.343037999999999954e+00
9.855838648094324972e-01 1.412633999999999945e+00
1.007156856623164121e+00 1.486579000000000095e+00
1.029202594413900052e+00 1.557106000000000101e+00
1.051730412046940843e+00 1.614849999999999897e+00
1.074752242739242414e+00 1.651869999999999949e+00
1.098277132661993116e+00 1.664838999999999958e+00
1.122316821060050707e+00 1.656076000000000104e+00
1.146883687643933891e+00 1.631898000000000071e+00
1.171988078537265165e+00 1.599920999999999927e+00
1.197640647923590596e+00 1.567091000000000012e+00
1.223856887071053556e+00 1.539064999999999905e+00
1.250645645814651763e+00 1.520408999999999899e+00
1.278020601692099190e+00 1.514618000000000020e+00
1.305994514823037633e+00 1.523463999999999929e+00
1.334582502555725414e+00 1.546200000000000019e+00
1.363795059788775355e+00 1.579423000000000021e+00
1.393646643680787944e+00 1.617604000000000042e+00
1.424152486855072564e+00 1.654093000000000035e+00
1.455324450032890349e+00 1.682746000000000075e+00
1.487179029585939727e+00 1.699896000000000074e+00
1.519733742648287977e+00 1.705656000000000061e+00
1.552997595959721311e+00 1.703465000000000007e+00
1.586991746055928854e+00 1.697626999999999997e+00
1.621728568046108876e+00 1.690144000000000091e+00
1.657226002538870313e+00 1.679427000000000003e+00
1.693503044918474698e+00 1.662193999999999949e+00
1.730570880722132499e+00 1.636673000000000044e+00
1.768449794594556090e+00 1.604470999999999981e+00
1.807161419272292235e+00 1.570192999999999950e+00
1.846718657952616915e+00 1.539554000000000089e+00
1.887141395956233536e+00 1.517295000000000060e+00
1.928446905999783967e+00 1.505662999999999974e+00
1.970660801980119947e+00 1.503568999999999933e+00
2.013794492272063863e+00 1.506761999999999935e+00
2.057875696076454375e+00 1.509242999999999890e+00
2.102921167794182811e+00 1.505533999999999928e+00
2.148947875120341244e+00 1.492798000000000069e+00
2.195987491655247315e+00 1.471656999999999993e+00
2.244054377925685628e+00 1.445376999999999912e+00
2.293172994677545429e+00 1.418212000000000028e+00
2.343369202504593130e+00 1.393801999999999985e+00
2.394664687077192156e+00 1.374111000000000082e+00
2.447081854888045971e+00 1.359242000000000061e+00
2.500643915808320461e+00 1.347868999999999984e+00
2.555381505681890708e+00 1.337793999999999928e+00
2.611313778074887182e+00 1.326653000000000082e+00
2.668474113132628389e+00 1.313037000000000010e+00
2.726883526623927079e+00 1.297409999999999952e+00
2.786570957242854973e+00 1.281849000000000016e+00
2.847566896465314912e+00 1.268766000000000060e+00
2.909895098281706893e+00 1.259619000000000044e+00
2.973597428432943612e+00 1.254200999999999899e+00
3.038682427299522981e+00 1.250593000000000066e+00
3.105194680180473732e+00 1.245746000000000020e+00
3.173162659491088000e+00 1.236550999999999956e+00
3.242626267866870915e+00 1.221011000000000069e+00
3.313595350363004233e+00 1.199173999999999962e+00
3.386134456627003964e+00 1.173424000000000023e+00
3.460243531939777739e+00 1.147915000000000019e+00
3.535992871438371044e+00 1.127369000000000065e+00
3.613382523514086397e+00 1.115704000000000029e+00
3.692475841976804229e+00 1.114883999999999986e+00
3.773300128292204736e+00 1.124332000000000109e+00
3.855897402281920350e+00 1.141080000000000094e+00
3.940296625529969621e+00 1.160806999999999922e+00
4.026542971266589888e+00 1.179497000000000018e+00
4.114684485993613805e+00 1.194947999999999899e+00
4.204754736656211023e+00 1.207386999999999988e+00
4.296787721499407020e+00 1.218898999999999955e+00
4.390837200929101236e+00 1.232026000000000066e+00
4.486960891648868355e+00 1.248361000000000054e+00
4.585157844058781684e+00 1.267876000000000003e+00
4.685530612914259763e+00 1.289090999999999987e+00
4.788102522851219511e+00 1.309641999999999973e+00
4.892894538551115780e+00 1.326993000000000089e+00
