# frequency(Hz) HVamp
2.000000000000000042e-02 1.943102000000000107e+00
2.043777802275861116e-02 2.058492999999999906e+00
2.088513892042544867e-02 2.141652999999999807e+00
2.134229185993890415e-02 2.176187999999999789e+00
2.180945121728470465e-02 2.153471999999999831e+00
2.228683671448790371e-02 2.074902999999999942e+00
2.277467095838639488e-02 1.952836000000000016e+00
2.327318386720582041e-02 1.804926000000000030e+00
2.378260869151607032e-02 1.648328999999999933e+00
2.430318396985316209e-02 1.500110999999999972e+00
2.483515418061077798e-02 1.377380999999999966e+00
2.537876860438217572e-02 1.293388999999999900e+00
2.593428185548686538e-02 1.254415999999999976e+00
2.650195524800330604e-02 1.260378999999999916e+00
2.708205410122367304e-02 1.307148999999999894e+00
2.767485116257483238e-02 1.388992999999999922e+00
2.828062296556268368e-02 1.501211000000000073e+00
2.889965516642458918e-02 1.641332999999999931e+00
2.953223712425469966e-02 1.806796999999999986e+00
3.017866585007221089e-02 1.989340000000000108e+00
3.083924344304486698e-02 2.169385000000000119e+00
3.151428172097601316e-02 2.317578999999999834e+00
3.220409460893151193e-02 2.408640999999999810e+00
3.290900679366954434e-02 2.438028000000000084e+00
3.362935008254323843e-02 2.422851999999999784e+00
3.436545982617606604e-02 2.386347000000000218e+00
3.511768145762538679e-02 2.344329000000000107e+00
3.588636982920923035e-02 2.303567000000000142e+00
3.667188287528685281e-02 2.267120999999999942e+00
3.747459035401046190e-02 2.239020000000000010e+00
3.829486888200696326e-02 2.225035000000000096e+00
3.913310161841203338e-02 2.230766000000000027e+00
3.998968266187323539e-02 2.258912000000000031e+00
4.086501260624340881e-02 2.306815999999999978e+00
4.175950326235679244e-02 2.365976999999999997e+00
4.267357455111880221e-02 2.424389999999999823e+00
4.360765235805109941e-02 2.469875000000000043e+00
4.456217573218773653e-02 2.490867999999999860e+00
4.553759360593897382e-02 2.474148000000000014e+00
4.653436264861679494e-02 2.406371000000000038e+00
4.755294901990994583e-02 2.286255000000000148e+00
4.859383060501651364e-02 2.134459999999999802e+00
4.965749734357217948e-02 1.982623000000000024e+00
5.074444382592605690e-02 1.853501000000000065e+00
5.185518671652646766e-02 1.752383000000000024e+00
5.299023919793973553e-02 1.672017000000000087e+00
5.415013688613103116e-02 1.602551999999999977e+00
5.533542508618215922e-02 1.538721000000000005e+00
5.654665825930951795e-02 1.481708000000000025e+00
5.778440269534190765e-02 1.437006999999999923e+00
5.904923992113619846e-02 1.411262000000000016e+00
6.034176368113722960e-02 1.409915000000000029e+00
6.166257977365023624e-02 1.434860000000000024e+00
6.301230579922413588e-02 1.482015000000000082e+00
6.439157495481964699e-02 1.539827999999999975e+00
6.580103648476649802e-02 1.589779000000000053e+00
6.724135160227064090e-02 1.611845999999999890e+00
6.871319291929786632e-02 1.593593999999999955e+00
7.021724865648072689e-02 1.536769999999999969e+00
7.175422799231455373e-02 1.457278000000000073e+00
7.332484622679873165e-02 1.378351000000000104e+00
7.492985067379918929e-02 1.320832000000000006e+00
7.656998328017844413e-02 1.296262999999999943e+00
7.824601847091161577e-02 1.304861000000000049e+00
7.995873489609482687e-02 1.336856000000000044e+00
8.170894587125514252e-02 1.375906999999999991e+00
8.349746848200181870e-02 1.404808999999999974e+00
8.532513483931059017e-02 1.412314000000000069e+00
8.719280666320453066e-02 1.396794000000000091e+00
8.910136197668877545e-02 1.364122000000000057e+00
9.105169441740208758e-02 1.322775000000000034e+00
9.304472101470850909e-02 1.280408999999999908e+00
9.508136492722282784e-02 1.242471000000000103e+00
9.716259003207046441e-02 1.211340000000000083e+00
9.928937600698042876e-02 1.185958999999999985e+00
1.014627169666056788e-01 1.162746000000000057e+00
1.036836198025345573e-01 1.137623999999999969e+00
1.059531470945422049e-01 1.107995000000000063e+00
1.082723426204657002e-01 1.073499999999999899e+00
1.106423073612318730e-01 1.035417999999999950e+00
1.130641434367904014e-01 9.953929999999999723e-01
1.155389888050807612e-01 9.544799999999999951e-01
1.180680199308263012e-01 9.132609999999999895e-01
1.206523964642573915e-01 8.727970000000000450e-01
1.232933427266421494e-01 8.352049999999999752e-01
1.259921091142061633e-01 8.029840000000000311e-01
1.287499385219043613e-01 7.775539999999999674e-01
1.315681276210838024e-01 7.582699999999999996e-01
1.344480149355610776e-01 7.427570000000000006e-01
1.373909270603933253e-01 7.282610000000000472e-01
1.403982677661723133e-01 7.129240000000000022e-01
1.434714465996406174e-01 6.961249999999999938e-01
1.466118729226930095e-01 6.780340000000000256e-01
1.498210387691902012e-01 6.591050000000000519e-01
1.531004603883944215e-01 6.399880000000000013e-01
1.564516759885790365e-01 6.216209999999999791e-01
1.598762174374112610e-01 6.048729999999999940e-01
1.633757347823671657e-01 5.898269999999999902e-01
1.669518482487836186e-01 5.756700000000000150e-01
1.706062493069121222e-01 5.615799999999999681e-01
1.743406480276755433e-01 5.474499999999999922e-01
1.781567686922972404e-01 5.337079999999999602e-01
1.820564109071452219e-01 5.208439999999999737e-01
1.860414236112984399e-01 5.091099999999999515e-01
1.901136708649468487e-01 4.982619999999999827e-01
1.942750635716576912e-01 4.876690000000000191e-01
1.985275213739692568e-01 4.769729999999999803e-01
2.028730886819132551e-01 4.664889999999999870e-01
2.073137384534022021e-01 4.567370000000000041e-01
2.118516148918974384e-01 4.478539999999999743e-01
2.164888283105038391e-01 4.396590000000000220e-01
2.212275340673810209e-01 4.321550000000000114e-01
2.260699835805370650e-01 4.257040000000000268e-01
2.310183752015635139e-01 4.207730000000000081e-01
2.360751096568884100e-01 4.175499999999999767e-01
2.412425341466744866e-01 4.155599999999999850e-01
2.465230998307618715e-01 4.135240000000000027e-01
2.519191833183147544e-01 4.098069999999999768e-01
2.574334553825345373e-01 4.034079999999999888e-01
2.630683822583526066e-01 3.947899999999999743e-01
2.688266710467492326e-01 3.858579999999999788e-01
2.747110108843249798e-01 3.791320000000000245e-01
2.807241335168895180e-01 3.766459999999999808e-01
2.868688920234096495e-01 3.791640000000000010e-01
2.931481028187655768e-01 3.860540000000000083e-01
2.995647922697904919e-01 3.957720000000000127e-01
3.061219491886544297e-01 4.066279999999999895e-01
3.128225983045015424e-01 4.174019999999999953e-01
3.196699982673885665e-01 4.275349999999999984e-01
3.266672524899394969e-01 4.369259999999999811e-01
3.338175913859038335e-01 4.453559999999999741e-01
3.411245032800827026e-01 4.517869999999999941e-01
3.485912903071751723e-01 4.541649999999999854e-01
3.562216425308692980e-01 4.501269999999999993e-01
3.640189144227933826e-01 4.382070000000000132e-01
3.719868599361595973e-01 4.187029999999999919e-01
3.801292743636255911e-01 3.936549999999999772e-01
3.884498326752345854e-01 3.661329999999999862e-01
3.969526737144291051e-01 3.394730000000000247e-01
4.056414997215270768e-01 3.168179999999999885e-01
4.145204868460213854e-01 3.008680000000000243e-01
4.235940173275368759e-01 2.936139999999999861e-01
4.328659535344370757e-01 2.957830000000000181e-01
4.423408678727827614e-01 3.062670000000000115e-01
4.520233696082087693e-01 3.221970000000000112e-01
4.619176604055267865e-01 3.398200000000000109e-01
4.720285331807737017e-01 3.556500000000000217e-01
4.823605567984378673e-01 3.674790000000000001e-01
4.929189725005434508e-01 3.750330000000000052e-01
5.037085542305222985e-01 3.800979999999999914e-01
5.147340034826902722e-01 3.859569999999999945e-01
5.260010193899755659e-01 3.961219999999999741e-01
5.375147682182568332e-01 4.126580000000000248e-01
5.492803329078241870e-01 4.350180000000000158e-01
5.613033013614973088e-01 4.602510000000000212e-01
5.735898580135665448e-01 4.847460000000000102e-01
5.861448258358571417e-01 5.066410000000000080e-01
5.989749143316128732e-01 5.270340000000000025e-01
6.120861303119130570e-01 5.486149999999999638e-01
6.254839682204105245e-01 5.726179999999999604e-01
6.391749019026319312e-01 5.965559999999999752e-01
6.531657310067570110e-01 6.144690000000000429e-01
6.674631727194452191e-01 6.197820000000000551e-01
6.820728740300071591e-01 6.092999999999999527e-01
6.970030263871405118e-01 5.857350000000000056e-01
7.122593364734473020e-01 5.568760000000000376e-01
7.278502433567288765e-01 5.319629999999999637e-01
7.437819826252529687e-01 5.177159999999999540e-01
7.600626595656545526e-01 5.162109999999999754e-01
7.766996323880640540e-01 5.251200000000000312e-01
7.937005574159013976e-01 5.394600000000000506e-01
8.110740810733430006e-01 5.538790000000000102e-01
8.288272757110509703e-01 5.650249999999999995e-01
8.469695429752346350e-01 5.732559999999999878e-01
8.655086161382736787e-01 5.823089999999999655e-01
8.844540397880493732e-01 5.966200000000000392e-01
9.038134601323364326e-01 6.182429999999999870e-01
9.235972635660274488e-01 6.460209999999999564e-01
9.438138195107080852e-01 6.775139999999999496e-01
9.644726842046378312e-01 7.114570000000000061e-01
9.855838648094324972e-01 7.481419999999999737e-01
1.007156856623164121e+00 7.877410000000000245e-01
1.029202594413900052e+00 8.286029999999999784e-01
1.051730412046940843e+00 8.669050000000000367e-01
1.074752242739242414e+00 8.978350000000000497e-01
1.098277132661993116e+00 9.178979999999999917e-01
1.122316821060050707e+00 9.270040000000000502e-01
1.146883687643933891e+00 9.285719999999999530e-01
1.171988078537265165e+00 9.276200000000000001e-01
1.197640647923590596e+00 9.285390000000000033e-01
1.223856887071053556e+00 9.338699999999999779e-01
1.250645645814651763e+00 9.439769999999999550e-01
1.278020601692099190e+00 9.571709999999999940e-01
1.305994514823037633e+00 9.702669999999999906e-01
1.334582502555725414e+00 9.797770000000000090e-01
1.363795059788775355e+00 9.837690000000000046e-01
1.393646643680787944e+00 9.839170000000000416e-01
1.424152486855072564e+00 9.865359999999999685e-01
1.455324450032890349e+00 1.001144999999999952e+00
1.487179029585939727e+00 1.036092000000000013e+00
1.519733742648287977e+00 1.092835999999999919e+00
1.552997595959721311e+00 1.162506999999999957e+00
1.586991746055928854e+00 1.228871000000000047e+00
1.621728568046108876e+00 1.277579999999999938e+00
1.657226002538870313e+00 1.304394999999999971e+00
1.693503044918474698e+00 1.315244000000000080e+00
1.730570880722132499e+00 1.319566999999999934e+00
1.768449794594556090e+00 1.323846000000000078e+00
1.807161419272292235e+00 1.329653999999999892e+00
1.846718657952616915e+00 1.335828999999999933e+00
1.887141395956233536e+00 1.342179999999999929e+00
1.928446905999783967e+00 1.351873000000000102e+00
1.970660801980119947e+00 1.370821999999999985e+00
2.013794492272063863e+00 1.404673999999999978e+00
2.057875696076454375e+00 1.455549999999999899e+00
2.102921167794182811e+00 1.520561000000000051e+00
2.148947875120341244e+00 1.592751999999999946e+00
2.195987491655247315e+00 1.663653999999999966e+00
2.244054377925685628e+00 1.725985000000000102e+00
2.293172994677545429e+00 1.775117000000000056e+00
2.343369202504593130e+00 1.808515000000000095e+00
2.394664687077192156e+00 1.823774999999999924e+00
2.447081854888045971e+00 1.817625000000000046e+00
2.500643915808320461e+00 1.787959999999999994e+00
2.555381505681890708e+00 1.737557000000000018e+00
2.611313778074887182e+00 1.675037000000000109e+00
2.668474113132628389e+00 1.611293000000000086e+00
2.726883526623927079e+00 1.554564999999999975e+00
2.786570957242854973e+00 1.507927000000000017e+00
2.847566896465314912e+00 1.470075000000000021e+00
2.909895098281706893e+00 1.437972999999999946e+00
2.973597428432943612e+00 1.409302999999999972e+00
3.038682427299522981e+00 1.383178000000000019e+00
3.105194680180473732e+00 1.359121999999999941e+00
3.173162659491088000e+00 1.336192999999999964e+00
3.242626267866870915e+00 1.313361000000000001e+00
3.313595350363004233e+00 1.290440999999999949e+00
3.386134456627003964e+00 1.268564999999999943e+00
3.460243531939777739e+00 1.249649999999999928e+00
3.535992871438371044e+00 1.235176999999999969e+00
3.613382523514086397e+00 1.225120999999999905e+00
3.692475841976804229e+00 1.217459000000000069e+00
3.773300128292204736e+00 1.208564999999999889e+00
3.855897402281920350e+00 1.194487000000000076e+00
3.940296625529969621e+00 1.172514999999999974e+00
4.026542971266589888e+00 1.142519999999999980e+00
4.114684485993613805e+00 1.107448999999999906e+00
4.204754736656211023e+00 1.072340999999999989e+00
4.296787721499407020e+00 1.042356999999999978e+00
4.390837200929101236e+00 1.021028000000000047e+00
4.486960891648868355e+00 1.009387999999999952e+00
4.585157844058781684e+00 1.006005999999999956e+00
4.685530612914259763e+00 1.007567000000000101e+00
4.788102522851219511e+00 1.009892000000000012e+00
4.892894538551115780e+00 1.009284000000000070e+00
