# frequency(Hz) HVamp
2.000000000000000042e-02 2.014799000000000007e+00
2.043777802275861116e-02 2.120092999999999783e+00
2.088513892042544867e-02 2.201331999999999844e+00
2.134229185993890415e-02 2.241830999999999907e+00
2.180945121728470465e-02 2.234789000000000136e+00
2.228683671448790371e-02 2.183171999999999890e+00
2.277467095838639488e-02 2.095639999999999947e+00
2.327318386720582041e-02 1.981905000000000028e+00
2.378260869151607032e-02 1.852403000000000022e+00
2.430318396985316209e-02 1.720385999999999971e+00
2.483515418061077798e-02 1.601158000000000081e+00
2.537876860438217572e-02 1.508030999999999899e+00
2.593428185548686538e-02 1.448110000000000008e+00
2.650195524800330604e-02 1.420279000000000069e+00
2.708205410122367304e-02 1.416612999999999900e+00
2.767485116257483238e-02 1.427216999999999958e+00
2.828062296556268368e-02 1.445924999999999905e+00
2.889965516642458918e-02 1.472485999999999962e+00
2.953223712425469966e-02 1.510267999999999944e+00
3.017866585007221089e-02 1.561860999999999944e+00
3.083924344304486698e-02 1.624691000000000107e+00
3.151428172097601316e-02 1.689354999999999940e+00
3.220409460893151193e-02 1.744191000000000047e+00
3.290900679366954434e-02 1.783630000000000049e+00
3.362935008254323843e-02 1.810586999999999946e+00
3.436545982617606604e-02 1.830368999999999913e+00
3.511768145762538679e-02 1.844880999999999993e+00
3.588636982920923035e-02 1.852591000000000099e+00
3.667188287528685281e-02 1.852100000000000080e+00
3.747459035401046190e-02 1.845804999999999918e+00
3.829486888200696326e-02 1.840459999999999985e+00
3.913310161841203338e-02 1.844494999999999996e+00
3.998968266187323539e-02 1.864776999999999907e+00
4.086501260624340881e-02 1.904058999999999946e+00
4.175950326235679244e-02 1.959886000000000017e+00
4.267357455111880221e-02 2.025530999999999970e+00
4.360765235805109941e-02 2.091864999999999863e+00
4.456217573218773653e-02 2.148061000000000220e+00
4.553759360593897382e-02 2.181192999999999937e+00
4.653436264861679494e-02 2.178491000000000177e+00
4.755294901990994583e-02 2.135399000000000047e+00
4.859383060501651364e-02 2.062523000000000106e+00
4.965749734357217948e-02 1.980742000000000003e+00
5.074444382592605690e-02 1.908198999999999979e+00
5.185518671652646766e-02 1.852665999999999924e+00
5.299023919793973553e-02 1.813220000000000054e+00
5.415013688613103116e-02 1.785157000000000105e+00
5.533542508618215922e-02 1.763641999999999932e+00
5.654665825930951795e-02 1.745708999999999955e+00
5.778440269534190765e-02 1.731189000000000089e+00
5.904923992113619846e-02 1.722617000000000065e+00
6.034176368113722960e-02 1.723424999999999985e+00
6.166257977365023624e-02 1.734896999999999911e+00
6.301230579922413588e-02 1.754347000000000101e+00
6.439157495481964699e-02 1.775149000000000088e+00
6.580103648476649802e-02 1.788232000000000044e+00
6.724135160227064090e-02 1.784653999999999963e+00
6.871319291929786632e-02 1.758067000000000046e+00
7.021724865648072689e-02 1.707008000000000081e+00
7.175422799231455373e-02 1.637037999999999993e+00
7.332484622679873165e-02 1.560343999999999953e+00
7.492985067379918929e-02 1.491400000000000059e+00
7.656998328017844413e-02 1.441238000000000019e+00
7.824601847091161577e-02 1.413642999999999983e+00
7.995873489609482687e-02 1.404597000000000095e+00
8.170894587125514252e-02 1.404798999999999909e+00
8.349746848200181870e-02 1.404088999999999920e+00
8.532513483931059017e-02 1.395678999999999892e+00
8.719280666320453066e-02 1.378119000000000094e+00
8.910136197668877545e-02 1.354400000000000048e+00
9.105169441740208758e-02 1.329344999999999999e+00
9.304472101470850909e-02 1.307202999999999893e+00
9.508136492722282784e-02 1.290581999999999896e+00
9.716259003207046441e-02 1.280318999999999985e+00
9.928937600698042876e-02 1.275600999999999985e+00
1.014627169666056788e-01 1.274181000000000008e+00
1.036836198025345573e-01 1.272958000000000034e+00
1.059531470945422049e-01 1.268906000000000089e+00
1.082723426204657002e-01 1.260010999999999992e+00
1.106423073612318730e-01 1.245854000000000017e+00
1.130641434367904014e-01 1.227516000000000052e+00
1.155389888050807612e-01 1.206890999999999936e+00
1.180680199308263012e-01 1.185928000000000093e+00
1.206523964642573915e-01 1.166136999999999979e+00
1.232933427266421494e-01 1.148441000000000045e+00
1.259921091142061633e-01 1.133359999999999923e+00
1.287499385219043613e-01 1.120921000000000056e+00
1.315681276210838024e-01 1.110136999999999929e+00
1.344480149355610776e-01 1.098734000000000099e+00
1.373909270603933253e-01 1.083714999999999984e+00
1.403982677661723133e-01 1.062959999999999905e+00
1.434714465996406174e-01 1.037277999999999922e+00
1.466118729226930095e-01 1.011044000000000054e+00
1.498210387691902012e-01 9.901469999999999994e-01
1.531004603883944215e-01 9.788210000000000521e-01
1.564516759885790365e-01 9.778740000000000210e-01
1.598762174374112610e-01 9.846260000000000012e-01
1.633757347823671657e-01 9.937639999999999807e-01
1.669518482487836186e-01 9.993159999999999821e-01
1.706062493069121222e-01 9.976840000000000153e-01
1.743406480276755433e-01 9.896620000000000417e-01
1.781567686922972404e-01 9.793190000000000506e-01
1.820564109071452219e-01 9.709999999999999742e-01
1.860414236112984399e-01 9.670379999999999532e-01
1.901136708649468487e-01 9.674110000000000209e-01
1.942750635716576912e-01 9.711849999999999650e-01
1.985275213739692568e-01 9.781579999999999719e-01
2.028730886819132551e-01 9.886979999999999658e-01
2.073137384534022021e-01 1.002027000000000001e+00
2.118516148918974384e-01 1.015271000000000035e+00
2.164888283105038391e-01 1.024578999999999906e+00
2.212275340673810209e-01 1.027465000000000073e+00
2.260699835805370650e-01 1.024194000000000049e+00
2.310183752015635139e-01 1.016726000000000019e+00
2.360751096568884100e-01 1.006396000000000068e+00
2.412425341466744866e-01 9.925990000000000091e-01
2.465230998307618715e-01 9.733619999999999495e-01
2.519191833183147544e-01 9.473150000000000182e-01
2.574334553825345373e-01 9.153649999999999842e-01
2.630683822583526066e-01 8.804910000000000236e-01
2.688266710467492326e-01 8.461760000000000392e-01
2.747110108843249798e-01 8.151639999999999997e-01
2.807241335168895180e-01 7.890730000000000244e-01
2.868688920234096495e-01 7.682940000000000325e-01
2.931481028187655768e-01 7.519799999999999818e-01
2.995647922697904919e-01 7.385279999999999623e-01
3.061219491886544297e-01 7.265470000000000539e-01
3.128225983045015424e-01 7.155169999999999586e-01
3.196699982673885665e-01 7.054540000000000255e-01
3.266672524899394969e-01 6.959659999999999735e-01
3.338175913859038335e-01 6.856919999999999682e-01
3.411245032800827026e-01 6.728199999999999736e-01
3.485912903071751723e-01 6.563849999999999962e-01
3.562216425308692980e-01 6.372299999999999631e-01
3.640189144227933826e-01 6.176449999999999996e-01
3.719868599361595973e-01 5.999780000000000113e-01
3.801292743636255911e-01 5.852929999999999522e-01
3.884498326752345854e-01 5.730979999999999963e-01
3.969526737144291051e-01 5.622890000000000388e-01
4.056414997215270768e-01 5.522519999999999651e-01
4.145204868460213854e-01 5.430840000000000112e-01
4.235940173275368759e-01 5.349990000000000023e-01
4.328659535344370757e-01 5.276779999999999804e-01
4.423408678727827614e-01 5.201989999999999670e-01
4.520233696082087693e-01 5.116220000000000212e-01
4.619176604055267865e-01 5.016329999999999956e-01
4.720285331807737017e-01 4.906530000000000058e-01
4.823605567984378673e-01 4.794149999999999801e-01
4.929189725005434508e-01 4.686210000000000098e-01
5.037085542305222985e-01 4.589610000000000078e-01
5.147340034826902722e-01 4.511569999999999747e-01
5.260010193899755659e-01 4.457090000000000218e-01
5.375147682182568332e-01 4.425520000000000009e-01
5.492803329078241870e-01 4.410370000000000124e-01
5.613033013614973088e-01 4.403369999999999784e-01
5.735898580135665448e-01 4.399930000000000230e-01
5.861448258358571417e-01 4.401610000000000245e-01
5.989749143316128732e-01 4.411829999999999918e-01
6.120861303119130570e-01 4.426100000000000034e-01
6.254839682204105245e-01 4.427400000000000224e-01
6.391749019026319312e-01 4.395609999999999795e-01
6.531657310067570110e-01 4.323730000000000073e-01
6.674631727194452191e-01 4.226199999999999957e-01
6.820728740300071591e-01 4.136050000000000004e-01
6.970030263871405118e-01 4.096400000000000041e-01
7.122593364734473020e-01 4.148629999999999818e-01
7.278502433567288765e-01 4.317819999999999991e-01
7.437819826252529687e-01 4.601740000000000275e-01
7.600626595656545526e-01 4.972730000000000206e-01
7.766996323880640540e-01 5.392639999999999656e-01
7.937005574159013976e-01 5.827499999999999902e-01
8.110740810733430006e-01 6.252499999999999725e-01
8.288272757110509703e-01 6.653059999999999530e-01
8.469695429752346350e-01 7.028720000000000523e-01
8.655086161382736787e-01 7.395749999999999824e-01
8.844540397880493732e-01 7.782890000000000086e-01
9.038134601323364326e-01 8.218729999999999647e-01
9.235972635660274488e-01 8.715289999999999981e-01
9.438138195107080852e-01 9.262139999999999818e-01
9.644726842046378312e-01 9.842039999999999678e-01
9.855838648094324972e-01 1.045180999999999916e+00
1.007156856623164121e+00 1.110370999999999997e+00
1.029202594413900052e+00 1.180298999999999987e+00
1.051730412046940843e+00 1.252064000000000066e+00
1.074752242739242414e+00 1.318958000000000075e+00
1.098277132661993116e+00 1.373472000000000026e+00
1.122316821060050707e+00 1.411610999999999949e+00
1.146883687643933891e+00 1.435281999999999947e+00
1.171988078537265165e+00 1.451402999999999999e+00
1.197640647923590596e+00 1.468726999999999894e+00
1.223856887071053556e+00 1.494251999999999914e+00
1.250645645814651763e+00 1.530969999999999942e+00
1.278020601692099190e+00 1.577785999999999911e+00
1.305994514823037633e+00 1.631089000000000011e+00
1.334582502555725414e+00 1.686768999999999963e+00
1.363795059788775355e+00 1.741699000000000108e+00
1.393646643680787944e+00 1.794491000000000058e+00
1.424152486855072564e+00 1.845609999999999973e+00
1.455324450032890349e+00 1.896808000000000050e+00
1.487179029585939727e+00 1.949789999999999912e+00
1.519733742648287977e+00 2.004356000000000027e+00
1.552997595959721311e+00 2.057030000000000136e+00
1.586991746055928854e+00 2.101758999999999933e+00
1.621728568046108876e+00 2.132843999999999962e+00
1.657226002538870313e+00 2.147996000000000016e+00
1.693503044918474698e+00 2.149426000000000059e+00
1.730570880722132499e+00 2.142914999999999903e+00
1.768449794594556090e+00 2.135925999999999991e+00
1.807161419272292235e+00 2.135470000000000201e+00
1.846718657952616915e+00 2.146228999999999942e+00
1.887141395956233536e+00 2.169922000000000128e+00
1.928446905999783967e+00 2.206139999999999990e+00
1.970660801980119947e+00 2.253461000000000158e+00
2.013794492272063863e+00 2.309762999999999789e+00
2.057875696076454375e+00 2.371580999999999939e+00
2.102921167794182811e+00 2.433211000000000013e+00
2.148947875120341244e+00 2.486842999999999915e+00
2.195987491655247315e+00 2.524805000000000188e+00
2.244054377925685628e+00 2.542864999999999931e+00
2.293172994677545429e+00 2.541485999999999912e+00
2.343369202504593130e+00 2.523356000000000154e+00
2.394664687077192156e+00 2.489663999999999877e+00
2.447081854888045971e+00 2.439267000000000074e+00
2.500643915808320461e+00 2.371474000000000082e+00
2.555381505681890708e+00 2.289193000000000033e+00
2.611313778074887182e+00 2.199288999999999827e+00
2.668474113132628389e+00 2.110085999999999906e+00
2.726883526623927079e+00 2.028157000000000210e+00
2.786570957242854973e+00 1.956439000000000039e+00
2.847566896465314912e+00 1.894341999999999970e+00
2.909895098281706893e+00 1.839345999999999925e+00
2.973597428432943612e+00 1.788804999999999978e+00
3.038682427299522981e+00 1.740766999999999953e+00
3.105194680180473732e+00 1.693791999999999964e+00
3.173162659491088000e+00 1.646813000000000082e+00
3.242626267866870915e+00 1.599623999999999935e+00
3.313595350363004233e+00 1.553417999999999966e+00
3.386134456627003964e+00 1.510647000000000073e+00
3.460243531939777739e+00 1.474263000000000101e+00
3.535992871438371044e+00 1.446566999999999936e+00
3.613382523514086397e+00 1.428134000000000015e+00
3.692475841976804229e+00 1.417321999999999971e+00
3.773300128292204736e+00 1.410671999999999926e+00
3.855897402281920350e+00 1.403944000000000081e+00
3.940296625529969621e+00 1.393394000000000021e+00
4.026542971266589888e+00 1.377067000000000041e+00
4.114684485993613805e+00 1.355591999999999908e+00
4.204754736656211023e+00 1.331801000000000013e+00
4.296787721499407020e+00 1.309317000000000064e+00
4.390837200929101236e+00 1.290958999999999968e+00
4.486960891648868355e+00 1.277767000000000097e+00
4.585157844058781684e+00 1.268872999999999918e+00
4.685530612914259763e+00 1.261994000000000060e+00
4.788102522851219511e+00 1.254234000000000071e+00
4.892894538551115780e+00 1.243033000000000055e+00
