# frequency(Hz) HVamp
2.000000000000000042e-02 2.036160000000000192e+00
2.043777802275861116e-02 2.130987000000000187e+00
2.088513892042544867e-02 2.205508000000000024e+00
2.134229185993890415e-02 2.244648999999999894e+00
2.180945121728470465e-02 2.242804000000000020e+00
2.228683671448790371e-02 2.203014000000000028e+00
2.277467095838639488e-02 2.132407999999999859e+00
2.327318386720582041e-02 2.038380000000000081e+00
2.378260869151607032e-02 1.929330999999999907e+00
2.430318396985316209e-02 1.816794000000000020e+00
2.483515418061077798e-02 1.714226999999999945e+00
2.537876860438217572e-02 1.633035000000000014e+00
2.593428185548686538e-02 1.578761999999999999e+00
2.650195524800330604e-02 1.549372999999999889e+00
2.708205410122367304e-02 1.536934999999999940e+00
2.767485116257483238e-02 1.532596000000000069e+00
2.828062296556268368e-02 1.531838999999999951e+00
2.889965516642458918e-02 1.535776000000000030e+00
2.953223712425469966e-02 1.548459999999999948e+00
3.017866585007221089e-02 1.573167999999999900e+00
3.083924344304486698e-02 1.609181999999999890e+00
3.151428172097601316e-02 1.650304999999999911e+00
3.220409460893151193e-02 1.687829000000000024e+00
3.290900679366954434e-02 1.716733999999999982e+00
3.362935008254323843e-02 1.737813999999999970e+00
3.436545982617606604e-02 1.753468999999999944e+00
3.511768145762538679e-02 1.763738999999999946e+00
3.588636982920923035e-02 1.766698000000000102e+00
3.667188287528685281e-02 1.761390999999999929e+00
3.747459035401046190e-02 1.750529999999999919e+00
3.829486888200696326e-02 1.740437999999999930e+00
3.913310161841203338e-02 1.738480000000000025e+00
3.998968266187323539e-02 1.750490000000000101e+00
4.086501260624340881e-02 1.778966999999999965e+00
4.175950326235679244e-02 1.822434000000000109e+00
4.267357455111880221e-02 1.876230000000000064e+00
4.360765235805109941e-02 1.933613000000000026e+00
4.456217573218773653e-02 1.985660999999999898e+00
4.553759360593897382e-02 2.020735999999999866e+00
4.653436264861679494e-02 2.026775999999999911e+00
4.755294901990994583e-02 1.998356000000000021e+00
4.859383060501651364e-02 1.942773000000000083e+00
4.965749734357217948e-02 1.876673999999999953e+00
5.074444382592605690e-02 1.815641999999999978e+00
5.185518671652646766e-02 1.767568000000000028e+00
5.299023919793973553e-02 1.733449000000000018e+00
5.415013688613103116e-02 1.710714000000000068e+00
5.533542508618215922e-02 1.695699000000000067e+00
5.654665825930951795e-02 1.685356000000000076e+00
5.778440269534190765e-02 1.678620999999999919e+00
5.904923992113619846e-02 1.676973999999999965e+00
6.034176368113722960e-02 1.683041999999999927e+00
6.166257977365023624e-02 1.697475999999999985e+00
6.301230579922413588e-02 1.717103000000000046e+00
6.439157495481964699e-02 1.735462000000000060e+00
6.580103648476649802e-02 1.744930000000000092e+00
6.724135160227064090e-02 1.739011000000000084e+00
6.871319291929786632e-02 1.713408999999999960e+00
7.021724865648072689e-02 1.667056000000000093e+00
7.175422799231455373e-02 1.604092000000000073e+00
7.332484622679873165e-02 1.534313000000000038e+00
7.492985067379918929e-02 1.469999000000000056e+00
7.656998328017844413e-02 1.420995999999999926e+00
7.824601847091161577e-02 1.391164000000000067e+00
7.995873489609482687e-02 1.377680000000000016e+00
8.170894587125514252e-02 1.373118999999999978e+00
8.349746848200181870e-02 1.369204000000000088e+00
8.532513483931059017e-02 1.360243000000000091e+00
8.719280666320453066e-02 1.344683000000000073e+00
8.910136197668877545e-02 1.324454000000000020e+00
9.105169441740208758e-02 1.302980000000000027e+00
9.304472101470850909e-02 1.283331000000000000e+00
9.508136492722282784e-02 1.267349999999999977e+00
9.716259003207046441e-02 1.255420999999999898e+00
9.928937600698042876e-02 1.246650000000000036e+00
1.014627169666056788e-01 1.239313000000000109e+00
1.036836198025345573e-01 1.231421000000000099e+00
1.059531470945422049e-01 1.221254999999999979e+00
1.082723426204657002e-01 1.207759999999999945e+00
1.106423073612318730e-01 1.190768999999999966e+00
1.130641434367904014e-01 1.170919000000000043e+00
1.155389888050807612e-01 1.149334999999999996e+00
1.180680199308263012e-01 1.127316999999999902e+00
1.206523964642573915e-01 1.106136000000000008e+00
1.232933427266421494e-01 1.086902999999999953e+00
1.259921091142061633e-01 1.070549999999999891e+00
1.287499385219043613e-01 1.057465000000000099e+00
1.315681276210838024e-01 1.046831999999999985e+00
1.344480149355610776e-01 1.036375999999999964e+00
1.373909270603933253e-01 1.023093999999999948e+00
1.403982677661723133e-01 1.004992000000000107e+00
1.434714465996406174e-01 9.830680000000000529e-01
1.466118729226930095e-01 9.617639999999999523e-01
1.498210387691902012e-01 9.467200000000000060e-01
1.531004603883944215e-01 9.415289999999999493e-01
1.564516759885790365e-01 9.460929999999999618e-01
1.598762174374112610e-01 9.569299999999999473e-01
1.633757347823671657e-01 9.685089999999999533e-01
1.669518482487836186e-01 9.754070000000000240e-01
1.706062493069121222e-01 9.750069999999999570e-01
1.743406480276755433e-01 9.689140000000000530e-01
1.781567686922972404e-01 9.614179999999999948e-01
1.820564109071452219e-01 9.564960000000000129e-01
1.860414236112984399e-01 9.558950000000000502e-01
1.901136708649468487e-01 9.591969999999999663e-01
1.942750635716576912e-01 9.653570000000000206e-01
1.985275213739692568e-01 9.741549999999999931e-01
2.028730886819132551e-01 9.858879999999999866e-01
2.073137384534022021e-01 9.997219999999999995e-01
2.118516148918974384e-01 1.012885999999999953e+00
2.164888283105038391e-01 1.021883000000000097e+00
2.212275340673810209e-01 1.024742000000000042e+00
2.260699835805370650e-01 1.022175999999999974e+00
2.310183752015635139e-01 1.016331000000000095e+00
2.360751096568884100e-01 1.008480000000000043e+00
2.412425341466744866e-01 9.978630000000000555e-01
2.465230998307618715e-01 9.823309999999999542e-01
2.519191833183147544e-01 9.601939999999999920e-01
2.574334553825345373e-01 9.317769999999999664e-01
2.630683822583526066e-01 8.993740000000000068e-01
2.688266710467492326e-01 8.660750000000000393e-01
2.747110108843249798e-01 8.347539999999999960e-01
2.807241335168895180e-01 8.075290000000000523e-01
2.868688920234096495e-01 7.853139999999999565e-01
2.931481028187655768e-01 7.676439999999999930e-01
2.995647922697904919e-01 7.531769999999999854e-01
3.061219491886544297e-01 7.406589999999999563e-01
3.128225983045015424e-01 7.295289999999999830e-01
3.196699982673885665e-01 7.196160000000000334e-01
3.266672524899394969e-01 7.103709999999999747e-01
3.338175913859038335e-01 7.004780000000000451e-01
3.411245032800827026e-01 6.883890000000000287e-01
3.485912903071751723e-01 6.734820000000000251e-01
3.562216425308692980e-01 6.568199999999999594e-01
3.640189144227933826e-01 6.406490000000000240e-01
3.719868599361595973e-01 6.270520000000000538e-01
3.801292743636255911e-01 6.167329999999999757e-01
3.884498326752345854e-01 6.088580000000000103e-01
3.969526737144291051e-01 6.020379999999999621e-01
4.056414997215270768e-01 5.954159999999999453e-01
4.145204868460213854e-01 5.888809999999999878e-01
4.235940173275368759e-01 5.824909999999999810e-01
4.328659535344370757e-01 5.758769999999999722e-01
4.423408678727827614e-01 5.682369999999999921e-01
4.520233696082087693e-01 5.588910000000000267e-01
4.619176604055267865e-01 5.478709999999999969e-01
4.720285331807737017e-01 5.359530000000000127e-01
4.823605567984378673e-01 5.241519999999999513e-01
4.929189725005434508e-01 5.132790000000000408e-01
5.037085542305222985e-01 5.039390000000000258e-01
5.147340034826902722e-01 4.966720000000000024e-01
5.260010193899755659e-01 4.917819999999999969e-01
5.375147682182568332e-01 4.890090000000000270e-01
5.492803329078241870e-01 4.874899999999999789e-01
5.613033013614973088e-01 4.861989999999999923e-01
5.735898580135665448e-01 4.845789999999999820e-01
5.861448258358571417e-01 4.828589999999999827e-01
5.989749143316128732e-01 4.816239999999999966e-01
6.120861303119130570e-01 4.808589999999999809e-01
6.254839682204105245e-01 4.794720000000000093e-01
6.391749019026319312e-01 4.760909999999999864e-01
6.531657310067570110e-01 4.705110000000000126e-01
6.674631727194452191e-01 4.643700000000000050e-01
6.820728740300071591e-01 4.607299999999999729e-01
6.970030263871405118e-01 4.631689999999999974e-01
7.122593364734473020e-01 4.748060000000000058e-01
7.278502433567288765e-01 4.972320000000000073e-01
7.437819826252529687e-01 5.297880000000000367e-01
7.600626595656545526e-01 5.699319999999999942e-01
7.766996323880640540e-01 6.146430000000000504e-01
7.937005574159013976e-01 6.615959999999999619e-01
8.110740810733430006e-01 7.092309999999999448e-01
8.288272757110509703e-01 7.563189999999999635e-01
8.469695429752346350e-01 8.019230000000000524e-01
8.655086161382736787e-01 8.458609999999999740e-01
8.844540397880493732e-01 8.892560000000000464e-01
9.038134601323364326e-01 9.343339999999999979e-01
9.235972635660274488e-01 9.829219999999999624e-01
9.438138195107080852e-01 1.035047000000000050e+00
9.644726842046378312e-01 1.089626999999999901e+00
9.855838648094324972e-01 1.146527999999999992e+00
1.007156856623164121e+00 1.207330999999999932e+00
1.029202594413900052e+00 1.273492000000000068e+00
1.051730412046940843e+00 1.343350000000000044e+00
1.074752242739242414e+00 1.411105000000000054e+00
1.098277132661993116e+00 1.469424000000000063e+00
1.122316821060050707e+00 1.513865000000000016e+00
1.146883687643933891e+00 1.545762000000000080e+00
1.171988078537265165e+00 1.571693000000000007e+00
1.197640647923590596e+00 1.600214000000000025e+00
1.223856887071053556e+00 1.637820999999999971e+00
1.250645645814651763e+00 1.686387000000000080e+00
1.278020601692099190e+00 1.743338000000000054e+00
1.305994514823037633e+00 1.804008999999999974e+00
1.334582502555725414e+00 1.864311999999999969e+00
1.363795059788775355e+00 1.922142999999999935e+00
1.393646643680787944e+00 1.977360000000000007e+00
1.424152486855072564e+00 2.030984000000000123e+00
1.455324450032890349e+00 2.084188999999999847e+00
1.487179029585939727e+00 2.137293000000000109e+00
1.519733742648287977e+00 2.188915999999999862e+00
1.552997595959721311e+00 2.235726000000000102e+00
1.586991746055928854e+00 2.273360999999999965e+00
1.621728568046108876e+00 2.298315000000000108e+00
1.657226002538870313e+00 2.309673999999999783e+00
1.693503044918474698e+00 2.309969000000000161e+00
1.730570880722132499e+00 2.305060000000000109e+00
1.768449794594556090e+00 2.302864000000000022e+00
1.807161419272292235e+00 2.310928000000000093e+00
1.846718657952616915e+00 2.333772000000000180e+00
1.887141395956233536e+00 2.371860999999999997e+00
1.928446905999783967e+00 2.422806000000000015e+00
1.970660801980119947e+00 2.483296999999999866e+00
2.013794492272063863e+00 2.550110000000000099e+00
2.057875696076454375e+00 2.619634000000000018e+00
2.102921167794182811e+00 2.686542999999999903e+00
2.148947875120341244e+00 2.743326000000000153e+00
2.195987491655247315e+00 2.782388999999999779e+00
2.244054377925685628e+00 2.799726000000000159e+00
2.293172994677545429e+00 2.796348000000000056e+00
2.343369202504593130e+00 2.775434000000000179e+00
2.394664687077192156e+00 2.738180999999999976e+00
2.447081854888045971e+00 2.683056999999999803e+00
2.500643915808320461e+00 2.609068000000000165e+00
2.555381505681890708e+00 2.519244000000000039e+00
2.611313778074887182e+00 2.420993000000000173e+00
2.668474113132628389e+00 2.323380999999999919e+00
2.726883526623927079e+00 2.233617000000000186e+00
2.786570957242854973e+00 2.154917000000000193e+00
2.847566896465314912e+00 2.086482000000000170e+00
2.909895098281706893e+00 2.025161999999999907e+00
2.973597428432943612e+00 1.967516999999999960e+00
3.038682427299522981e+00 1.910983000000000098e+00
3.105194680180473732e+00 1.854001999999999928e+00
3.173162659491088000e+00 1.795919999999999961e+00
3.242626267866870915e+00 1.737282999999999911e+00
3.313595350363004233e+00 1.680147999999999975e+00
3.386134456627003964e+00 1.627766000000000046e+00
3.460243531939777739e+00 1.583671000000000051e+00
3.535992871438371044e+00 1.550435000000000008e+00
3.613382523514086397e+00 1.528529999999999944e+00
3.692475841976804229e+00 1.515894999999999992e+00
3.773300128292204736e+00 1.508469999999999978e+00
3.855897402281920350e+00 1.501398000000000010e+00
3.940296625529969621e+00 1.490452000000000110e+00
4.026542971266589888e+00 1.473435000000000050e+00
4.114684485993613805e+00 1.450941000000000036e+00
4.204754736656211023e+00 1.425877000000000061e+00
4.296787721499407020e+00 1.401964999999999906e+00
4.390837200929101236e+00 1.382114999999999982e+00
4.486960891648868355e+00 1.367445999999999939e+00
4.585157844058781684e+00 1.357180000000000053e+00
4.685530612914259763e+00 1.349126999999999965e+00
4.788102522851219511e+00 1.340462999999999960e+00
4.892894538551115780e+00 1.328643000000000018e+00
