# frequency(Hz) HVamp
2.000000000000000042e-02 7.555830000000000046e-01
2.043777802275861116e-02 7.361919999999999575e-01
2.088513892042544867e-02 7.268860000000000321e-01
2.134229185993890415e-02 7.296300000000000008e-01
2.180945121728470465e-02 7.452010000000000023e-01
2.228683671448790371e-02 7.735469999999999846e-01
2.277467095838639488e-02 8.139380000000000503e-01
2.327318386720582041e-02 8.655399999999999761e-01
2.378260869151607032e-02 9.268739999999999757e-01
2.430318396985316209e-02 9.949850000000000083e-01
2.483515418061077798e-02 1.063646000000000091e+00
2.537876860438217572e-02 1.122843999999999953e+00
2.593428185548686538e-02 1.162260999999999989e+00
2.650195524800330604e-02 1.176935999999999982e+00
2.708205410122367304e-02 1.170350000000000001e+00
2.767485116257483238e-02 1.151810999999999918e+00
2.828062296556268368e-02 1.130274000000000001e+00
2.889965516642458918e-02 1.109847999999999946e+00
2.953223712425469966e-02 1.090276000000000023e+00
3.017866585007221089e-02 1.070991999999999944e+00
3.083924344304486698e-02 1.054100000000000037e+00
3.151428172097601316e-02 1.043573000000000084e+00
3.220409460893151193e-02 1.041644000000000014e+00
3.290900679366954434e-02 1.045616000000000101e+00
3.362935008254323843e-02 1.048718000000000039e+00
3.436545982617606604e-02 1.044829999999999925e+00
3.511768145762538679e-02 1.032620000000000093e+00
3.588636982920923035e-02 1.015921999999999992e+00
3.667188287528685281e-02 1.000432999999999906e+00
3.747459035401046190e-02 9.893250000000000099e-01
3.829486888200696326e-02 9.813190000000000524e-01
3.913310161841203338e-02 9.720999999999999641e-01
3.998968266187323539e-02 9.569280000000000008e-01
4.086501260624340881e-02 9.325949999999999518e-01
4.175950326235679244e-02 8.988669999999999716e-01
4.267357455111880221e-02 8.593290000000000095e-01
4.360765235805109941e-02 8.203880000000000061e-01
4.456217573218773653e-02 7.883379999999999832e-01
4.553759360593897382e-02 7.668409999999999949e-01
4.653436264861679494e-02 7.559839999999999893e-01
4.755294901990994583e-02 7.505910000000000082e-01
4.859383060501651364e-02 7.404180000000000206e-01
4.965749734357217948e-02 7.173559999999999937e-01
5.074444382592605690e-02 6.818039999999999656e-01
5.185518671652646766e-02 6.408709999999999685e-01
5.299023919793973553e-02 6.031490000000000462e-01
5.415013688613103116e-02 5.739119999999999777e-01
5.533542508618215922e-02 5.526039999999999841e-01
5.654665825930951795e-02 5.337110000000000465e-01
5.778440269534190765e-02 5.105399999999999938e-01
5.904923992113619846e-02 4.801250000000000240e-01
6.034176368113722960e-02 4.450219999999999732e-01
6.166257977365023624e-02 4.089650000000000230e-01
6.301230579922413588e-02 3.730049999999999755e-01
6.439157495481964699e-02 3.372350000000000070e-01
6.580103648476649802e-02 3.041260000000000074e-01
6.724135160227064090e-02 2.787999999999999923e-01
6.871319291929786632e-02 2.653800000000000048e-01
7.021724865648072689e-02 2.630319999999999880e-01
7.175422799231455373e-02 2.654179999999999873e-01
7.332484622679873165e-02 2.641410000000000147e-01
7.492985067379918929e-02 2.535640000000000116e-01
7.656998328017844413e-02 2.327909999999999979e-01
7.824601847091161577e-02 2.044020000000000004e-01
7.995873489609482687e-02 1.726550000000000029e-01
8.170894587125514252e-02 1.422700000000000076e-01
8.349746848200181870e-02 1.176689999999999958e-01
8.532513483931059017e-02 1.021019999999999983e-01
8.719280666320453066e-02 9.644700000000000495e-02
8.910136197668877545e-02 9.817099999999999438e-02
9.105169441740208758e-02 1.015670000000000045e-01
9.304472101470850909e-02 1.002389999999999948e-01
9.508136492722282784e-02 9.054199999999999748e-02
9.716259003207046441e-02 7.269000000000000461e-02
9.928937600698042876e-02 4.993800000000000322e-02
1.014627169666056788e-01 2.724599999999999939e-02
1.036836198025345573e-01 9.270999999999999727e-03
1.059531470945422049e-01 -1.693000000000000060e-03
1.082723426204657002e-01 -6.557000000000000328e-03
1.106423073612318730e-01 -8.524999999999999592e-03
1.130641434367904014e-01 -1.103200000000000014e-02
1.155389888050807612e-01 -1.578699999999999895e-02
1.180680199308263012e-01 -2.195400000000000129e-02
1.206523964642573915e-01 -2.675100000000000047e-02
1.232933427266421494e-01 -2.747399999999999842e-02
1.259921091142061633e-01 -2.410199999999999843e-02
1.287499385219043613e-01 -2.033599999999999991e-02
1.315681276210838024e-01 -2.149200000000000069e-02
1.344480149355610776e-01 -3.057899999999999854e-02
1.373909270603933253e-01 -4.587100000000000205e-02
1.403982677661723133e-01 -6.195099999999999912e-02
1.434714465996406174e-01 -7.326399999999999579e-02
1.466118729226930095e-01 -7.772900000000000642e-02
1.498210387691902012e-01 -7.772800000000000542e-02
1.531004603883944215e-01 -7.771699999999999442e-02
1.564516759885790365e-01 -8.083500000000000407e-02
1.598762174374112610e-01 -8.736199999999999521e-02
1.633757347823671657e-01 -9.526099999999999846e-02
1.669518482487836186e-01 -1.014520000000000005e-01
1.706062493069121222e-01 -1.030869999999999981e-01
1.743406480276755433e-01 -9.812500000000000389e-02
1.781567686922972404e-01 -8.440300000000000580e-02
1.820564109071452219e-01 -5.913299999999999806e-02
1.860414236112984399e-01 -2.111800000000000135e-02
1.901136708649468487e-01 2.636600000000000055e-02
1.942750635716576912e-01 7.572299999999999864e-02
1.985275213739692568e-01 1.182949999999999974e-01
2.028730886819132551e-01 1.479109999999999869e-01
2.073137384534022021e-01 1.627139999999999975e-01
2.118516148918974384e-01 1.650540000000000063e-01
2.164888283105038391e-01 1.598600000000000021e-01
2.212275340673810209e-01 1.524169999999999969e-01
2.260699835805370650e-01 1.472449999999999870e-01
2.310183752015635139e-01 1.482709999999999861e-01
2.360751096568884100e-01 1.583960000000000090e-01
2.412425341466744866e-01 1.779060000000000086e-01
2.465230998307618715e-01 2.042549999999999921e-01
2.519191833183147544e-01 2.343709999999999960e-01
2.574334553825345373e-01 2.669329999999999758e-01
2.630683822583526066e-01 3.022799999999999931e-01
2.688266710467492326e-01 3.405059999999999754e-01
2.747110108843249798e-01 3.800600000000000089e-01
2.807241335168895180e-01 4.183870000000000089e-01
2.868688920234096495e-01 4.538309999999999844e-01
2.931481028187655768e-01 4.870749999999999802e-01
2.995647922697904919e-01 5.207570000000000254e-01
3.061219491886544297e-01 5.570749999999999869e-01
3.128225983045015424e-01 5.951629999999999976e-01
3.196699982673885665e-01 6.308859999999999468e-01
3.266672524899394969e-01 6.597300000000000386e-01
3.338175913859038335e-01 6.804059999999999553e-01
3.411245032800827026e-01 6.958220000000000516e-01
3.485912903071751723e-01 7.104570000000000052e-01
3.562216425308692980e-01 7.267930000000000224e-01
3.640189144227933826e-01 7.444439999999999946e-01
3.719868599361595973e-01 7.619230000000000169e-01
3.801292743636255911e-01 7.783390000000000031e-01
3.884498326752345854e-01 7.935410000000000519e-01
3.969526737144291051e-01 8.073350000000000248e-01
4.056414997215270768e-01 8.191319999999999713e-01
4.145204868460213854e-01 8.285890000000000200e-01
4.235940173275368759e-01 8.365129999999999511e-01
4.328659535344370757e-01 8.448259999999999659e-01
4.423408678727827614e-01 8.553730000000000500e-01
4.520233696082087693e-01 8.687430000000000430e-01
4.619176604055267865e-01 8.840360000000000440e-01
4.720285331807737017e-01 8.995039999999999702e-01
4.823605567984378673e-01 9.135790000000000299e-01
4.929189725005434508e-01 9.255630000000000246e-01
5.037085542305222985e-01 9.356750000000000345e-01
5.147340034826902722e-01 9.447100000000000497e-01
5.260010193899755659e-01 9.535569999999999879e-01
5.375147682182568332e-01 9.624939999999999607e-01
5.492803329078241870e-01 9.706949999999999745e-01
5.613033013614973088e-01 9.766989999999999839e-01
5.735898580135665448e-01 9.792049999999999921e-01
5.861448258358571417e-01 9.773269999999999458e-01
5.989749143316128732e-01 9.705850000000000311e-01
6.120861303119130570e-01 9.593230000000000368e-01
6.254839682204105245e-01 9.453819999999999446e-01
6.391749019026319312e-01 9.319429999999999659e-01
6.531657310067570110e-01 9.219239999999999657e-01
6.674631727194452191e-01 9.162109999999999976e-01
6.820728740300071591e-01 9.136159999999999837e-01
6.970030263871405118e-01 9.123310000000000031e-01
7.122593364734473020e-01 9.110599999999999810e-01
7.278502433567288765e-01 9.092040000000000122e-01
7.437819826252529687e-01 9.068650000000000322e-01
7.600626595656545526e-01 9.049930000000000474e-01
7.766996323880640540e-01 9.053639999999999466e-01
7.937005574159013976e-01 9.101380000000000026e-01
8.110740810733430006e-01 9.208439999999999959e-01
8.288272757110509703e-01 9.369579999999999576e-01
8.469695429752346350e-01 9.552789999999999893e-01
8.655086161382736787e-01 9.713969999999999549e-01
8.844540397880493732e-01 9.826580000000000314e-01
9.038134601323364326e-01 9.899799999999999711e-01
9.235972635660274488e-01 9.965270000000000516e-01
9.438138195107080852e-01 1.004672999999999927e+00
9.644726842046378312e-01 1.014728000000000074e+00
9.855838648094324972e-01 1.026462999999999903e+00
1.007156856623164121e+00 1.041268000000000082e+00
1.029202594413900052e+00 1.062160999999999911e+00
1.051730412046940843e+00 1.091207000000000038e+00
1.074752242739242414e+00 1.127205000000000013e+00
1.098277132661993116e+00 1.166447000000000012e+00
1.122316821060050707e+00 1.205878999999999923e+00
1.146883687643933891e+00 1.245757000000000003e+00
1.171988078537265165e+00 1.289733999999999936e+00
1.197640647923590596e+00 1.342454999999999954e+00
1.223856887071053556e+00 1.406187999999999994e+00
1.250645645814651763e+00 1.478639000000000037e+00
1.278020601692099190e+00 1.553650999999999893e+00
1.305994514823037633e+00 1.624503999999999948e+00
1.334582502555725414e+00 1.687513999999999958e+00
1.363795059788775355e+00 1.743440000000000101e+00
1.393646643680787944e+00 1.796127999999999947e+00
1.424152486855072564e+00 1.849460000000000104e+00
1.455324450032890349e+00 1.904476999999999975e+00
1.487179029585939727e+00 1.958398000000000083e+00
1.519733742648287977e+00 2.006190999999999836e+00
1.552997595959721311e+00 2.043741999999999948e+00
1.586991746055928854e+00 2.070282999999999873e+00
1.621728568046108876e+00 2.088318999999999814e+00
1.657226002538870313e+00 2.102259000000000100e+00
1.693503044918474698e+00 2.118119000000000085e+00
1.730570880722132499e+00 2.143930000000000113e+00
1.768449794594556090e+00 2.187981999999999871e+00
1.807161419272292235e+00 2.254274000000000111e+00
1.846718657952616915e+00 2.338801999999999826e+00
1.887141395956233536e+00 2.430890999999999913e+00
1.928446905999783967e+00 2.518822000000000116e+00
1.970660801980119947e+00 2.595000999999999891e+00
2.013794492272063863e+00 2.657399999999999984e+00
2.057875696076454375e+00 2.707803000000000182e+00
2.102921167794182811e+00 2.748810000000000198e+00
2.148947875120341244e+00 2.781169999999999920e+00
2.195987491655247315e+00 2.803227000000000135e+00
2.244054377925685628e+00 2.812507000000000090e+00
2.293172994677545429e+00 2.807227000000000139e+00
2.343369202504593130e+00 2.786582999999999810e+00
2.394664687077192156e+00 2.750392000000000170e+00
2.447081854888045971e+00 2.698649000000000076e+00
2.500643915808320461e+00 2.631952000000000069e+00
2.555381505681890708e+00 2.552843999999999891e+00
2.611313778074887182e+00 2.466712999999999933e+00
2.668474113132628389e+00 2.380973000000000006e+00
2.726883526623927079e+00 2.302607000000000070e+00
2.786570957242854973e+00 2.235590000000000188e+00
2.847566896465314912e+00 2.179546999999999901e+00
2.909895098281706893e+00 2.130094000000000154e+00
2.973597428432943612e+00 2.080770999999999926e+00
3.038682427299522981e+00 2.025713000000000097e+00
3.105194680180473732e+00 1.961762999999999924e+00
3.173162659491088000e+00 1.889178000000000024e+00
3.242626267866870915e+00 1.811293999999999960e+00
3.313595350363004233e+00 1.733761000000000108e+00
3.386134456627003964e+00 1.663210000000000077e+00
3.460243531939777739e+00 1.605340999999999907e+00
3.535992871438371044e+00 1.563303000000000109e+00
3.613382523514086397e+00 1.536869999999999958e+00
3.692475841976804229e+00 1.522561999999999971e+00
3.773300128292204736e+00 1.514693000000000067e+00
3.855897402281920350e+00 1.507104999999999917e+00
3.940296625529969621e+00 1.495257000000000058e+00
4.026542971266589888e+00 1.477721999999999980e+00
4.114684485993613805e+00 1.456129999999999924e+00
4.204754736656211023e+00 1.433831999999999995e+00
4.296787721499407020e+00 1.414241999999999999e+00
4.390837200929101236e+00 1.399631999999999987e+00
4.486960891648868355e+00 1.390681999999999974e+00
4.585157844058781684e+00 1.386657999999999946e+00
4.685530612914259763e+00 1.385904999999999943e+00
4.788102522851219511e+00 1.386336999999999930e+00
4.892894538551115780e+00 1.385763000000000078e+00
