# frequency(Hz) HVamp
2.000000000000000042e-02 8.949840000000000018e-01
2.043777802275861116e-02 8.908080000000000442e-01
2.088513892042544867e-02 9.008180000000000076e-01
2.134229185993890415e-02 9.199439999999999840e-01
2.180945121728470465e-02 9.422939999999999650e-01
2.228683671448790371e-02 9.639659999999999895e-01
2.277467095838639488e-02 9.840189999999999770e-01
2.327318386720582041e-02 1.003800000000000026e+00
2.378260869151607032e-02 1.025443000000000104e+00
2.430318396985316209e-02 1.050132999999999983e+00
2.483515418061077798e-02 1.077552999999999983e+00
2.537876860438217572e-02 1.106611999999999929e+00
2.593428185548686538e-02 1.136473000000000066e+00
2.650195524800330604e-02 1.166833999999999927e+00
2.708205410122367304e-02 1.197434000000000109e+00
2.767485116257483238e-02 1.226982999999999935e+00
2.828062296556268368e-02 1.252369000000000065e+00
2.889965516642458918e-02 1.269552000000000014e+00
2.953223712425469966e-02 1.276424999999999921e+00
3.017866585007221089e-02 1.275136999999999965e+00
3.083924344304486698e-02 1.271331999999999907e+00
3.151428172097601316e-02 1.271174000000000026e+00
3.220409460893151193e-02 1.278731000000000062e+00
3.290900679366954434e-02 1.294955999999999996e+00
3.362935008254323843e-02 1.318022000000000027e+00
3.436545982617606604e-02 1.344233999999999929e+00
3.511768145762538679e-02 1.368773000000000017e+00
3.588636982920923035e-02 1.386706999999999912e+00
3.667188287528685281e-02 1.394838000000000022e+00
3.747459035401046190e-02 1.393915999999999933e+00
3.829486888200696326e-02 1.389110000000000067e+00
3.913310161841203338e-02 1.387240000000000029e+00
3.998968266187323539e-02 1.392867000000000077e+00
4.086501260624340881e-02 1.406134999999999913e+00
4.175950326235679244e-02 1.422790999999999917e+00
4.267357455111880221e-02 1.436239000000000043e+00
4.360765235805109941e-02 1.441445000000000087e+00
4.456217573218773653e-02 1.438323999999999936e+00
4.553759360593897382e-02 1.431337999999999999e+00
4.653436264861679494e-02 1.425775999999999932e+00
4.755294901990994583e-02 1.424128999999999978e+00
4.859383060501651364e-02 1.425340999999999969e+00
4.965749734357217948e-02 1.427154999999999951e+00
5.074444382592605690e-02 1.428239999999999954e+00
5.185518671652646766e-02 1.428736000000000006e+00
5.299023919793973553e-02 1.429464999999999986e+00
5.415013688613103116e-02 1.430312999999999946e+00
5.533542508618215922e-02 1.429364000000000079e+00
5.654665825930951795e-02 1.423402999999999974e+00
5.778440269534190765e-02 1.409343999999999930e+00
5.904923992113619846e-02 1.385669999999999957e+00
6.034176368113722960e-02 1.353061000000000069e+00
6.166257977365023624e-02 1.314254000000000033e+00
6.301230579922413588e-02 1.273530999999999969e+00
6.439157495481964699e-02 1.235260000000000025e+00
6.580103648476649802e-02 1.202431999999999945e+00
6.724135160227064090e-02 1.176490000000000036e+00
6.871319291929786632e-02 1.157575999999999938e+00
7.021724865648072689e-02 1.144365000000000077e+00
7.175422799231455373e-02 1.134098999999999968e+00
7.332484622679873165e-02 1.123496999999999968e+00
7.492985067379918929e-02 1.109968000000000066e+00
7.656998328017844413e-02 1.092168999999999945e+00
7.824601847091161577e-02 1.070078000000000085e+00
7.995873489609482687e-02 1.045315999999999912e+00
8.170894587125514252e-02 1.021066999999999947e+00
8.349746848200181870e-02 1.000909999999999966e+00
8.532513483931059017e-02 9.871720000000000494e-01
8.719280666320453066e-02 9.801509999999999945e-01
8.910136197668877545e-02 9.788069999999999826e-01
9.105169441740208758e-02 9.818019999999999525e-01
9.304472101470850909e-02 9.878289999999999571e-01
9.508136492722282784e-02 9.957690000000000152e-01
9.716259003207046441e-02 1.005101999999999940e+00
9.928937600698042876e-02 1.016170999999999935e+00
1.014627169666056788e-01 1.029913000000000078e+00
1.036836198025345573e-01 1.047322000000000086e+00
1.059531470945422049e-01 1.069004000000000065e+00
1.082723426204657002e-01 1.094918999999999976e+00
1.106423073612318730e-01 1.124508999999999981e+00
1.130641434367904014e-01 1.157132000000000049e+00
1.155389888050807612e-01 1.192204999999999959e+00
1.180680199308263012e-01 1.228742999999999919e+00
1.206523964642573915e-01 1.264848999999999890e+00
1.232933427266421494e-01 1.298160999999999898e+00
1.259921091142061633e-01 1.327185000000000059e+00
1.287499385219043613e-01 1.352046000000000081e+00
1.315681276210838024e-01 1.373633000000000104e+00
1.344480149355610776e-01 1.391883999999999899e+00
1.373909270603933253e-01 1.404983000000000093e+00
1.403982677661723133e-01 1.410406000000000049e+00
1.434714465996406174e-01 1.407113999999999976e+00
1.466118729226930095e-01 1.397129000000000065e+00
1.498210387691902012e-01 1.385423999999999989e+00
1.531004603883944215e-01 1.378522000000000025e+00
1.564516759885790365e-01 1.382439999999999891e+00
1.598762174374112610e-01 1.400195000000000078e+00
1.633757347823671657e-01 1.429583999999999966e+00
1.669518482487836186e-01 1.462741000000000069e+00
1.706062493069121222e-01 1.488750000000000018e+00
1.743406480276755433e-01 1.498818999999999901e+00
1.781567686922972404e-01 1.491341000000000028e+00
1.820564109071452219e-01 1.472920000000000007e+00
1.860414236112984399e-01 1.453961999999999977e+00
1.901136708649468487e-01 1.442771000000000026e+00
1.942750635716576912e-01 1.442495000000000083e+00
1.985275213739692568e-01 1.451294000000000084e+00
2.028730886819132551e-01 1.464426999999999923e+00
2.073137384534022021e-01 1.477343999999999991e+00
2.118516148918974384e-01 1.488026999999999989e+00
2.164888283105038391e-01 1.497212999999999905e+00
2.212275340673810209e-01 1.507033000000000067e+00
2.260699835805370650e-01 1.519257000000000080e+00
2.310183752015635139e-01 1.533806000000000003e+00
2.360751096568884100e-01 1.548369000000000106e+00
2.412425341466744866e-01 1.559642999999999891e+00
2.465230998307618715e-01 1.565282000000000062e+00
2.519191833183147544e-01 1.565150999999999959e+00
2.574334553825345373e-01 1.561293999999999960e+00
2.630683822583526066e-01 1.556815000000000060e+00
2.688266710467492326e-01 1.554316000000000031e+00
2.747110108843249798e-01 1.554794999999999927e+00
2.807241335168895180e-01 1.557577999999999907e+00
2.868688920234096495e-01 1.561072999999999933e+00
2.931481028187655768e-01 1.563420999999999950e+00
2.995647922697904919e-01 1.562974000000000085e+00
3.061219491886544297e-01 1.559075999999999906e+00
3.128225983045015424e-01 1.552575000000000038e+00
3.196699982673885665e-01 1.545109000000000066e+00
3.266672524899394969e-01 1.537474999999999925e+00
3.338175913859038335e-01 1.528486000000000011e+00
3.411245032800827026e-01 1.515028999999999959e+00
3.485912903071751723e-01 1.493357000000000046e+00
3.562216425308692980e-01 1.461443000000000048e+00
3.640189144227933826e-01 1.420873999999999970e+00
3.719868599361595973e-01 1.376570000000000071e+00
3.801292743636255911e-01 1.334748999999999963e+00
3.884498326752345854e-01 1.300834000000000046e+00
3.969526737144291051e-01 1.278086000000000055e+00
4.056414997215270768e-01 1.266896999999999940e+00
4.145204868460213854e-01 1.264731000000000050e+00
4.235940173275368759e-01 1.266941000000000095e+00
4.328659535344370757e-01 1.268480999999999970e+00
4.423408678727827614e-01 1.265960999999999892e+00
4.520233696082087693e-01 1.258871000000000073e+00
4.619176604055267865e-01 1.248928000000000038e+00
4.720285331807737017e-01 1.238194999999999935e+00
4.823605567984378673e-01 1.228027999999999897e+00
4.929189725005434508e-01 1.219371999999999900e+00
5.037085542305222985e-01 1.212979999999999947e+00
5.147340034826902722e-01 1.208793999999999924e+00
5.260010193899755659e-01 1.205543000000000031e+00
5.375147682182568332e-01 1.201502999999999988e+00
5.492803329078241870e-01 1.195859000000000005e+00
5.613033013614973088e-01 1.189405000000000046e+00
5.735898580135665448e-01 1.184012000000000064e+00
5.861448258358571417e-01 1.181273999999999935e+00
5.989749143316128732e-01 1.181378999999999957e+00
6.120861303119130570e-01 1.183324000000000042e+00
6.254839682204105245e-01 1.186533999999999978e+00
6.391749019026319312e-01 1.192368000000000094e+00
6.531657310067570110e-01 1.203716000000000008e+00
6.674631727194452191e-01 1.222785999999999929e+00
6.820728740300071591e-01 1.249114000000000058e+00
6.970030263871405118e-01 1.279422999999999977e+00
7.122593364734473020e-01 1.309142999999999946e+00
7.278502433567288765e-01 1.334416000000000047e+00
7.437819826252529687e-01 1.353326000000000029e+00
7.600626595656545526e-01 1.365852000000000066e+00
7.766996323880640540e-01 1.372989999999999933e+00
7.937005574159013976e-01 1.375574999999999992e+00
8.110740810733430006e-01 1.373324999999999907e+00
8.288272757110509703e-01 1.365153000000000061e+00
8.469695429752346350e-01 1.351148999999999933e+00
8.655086161382736787e-01 1.334635000000000016e+00
8.844540397880493732e-01 1.322090999999999905e+00
9.038134601323364326e-01 1.320589000000000013e+00
9.235972635660274488e-01 1.334573000000000009e+00
9.438138195107080852e-01 1.364421000000000106e+00
9.644726842046378312e-01 1.407500999999999891e+00
9.855838648094324972e-01 1.459589999999999943e+00
1.007156856623164121e+00 1.515025000000000066e+00
1.029202594413900052e+00 1.566570999999999936e+00
1.051730412046940843e+00 1.606443999999999983e+00
1.074752242739242414e+00 1.628468000000000027e+00
1.098277132661993116e+00 1.630228999999999928e+00
1.122316821060050707e+00 1.613954000000000111e+00
1.146883687643933891e+00 1.585674999999999946e+00
1.171988078537265165e+00 1.553260000000000085e+00
1.197640647923590596e+00 1.524256999999999973e+00
1.223856887071053556e+00 1.504326000000000052e+00
1.250645645814651763e+00 1.496679000000000093e+00
1.278020601692099190e+00 1.502372999999999958e+00
1.305994514823037633e+00 1.520942000000000016e+00
1.334582502555725414e+00 1.550842999999999972e+00
1.363795059788775355e+00 1.589463000000000070e+00
1.393646643680787944e+00 1.632700000000000040e+00
1.424152486855072564e+00 1.674784999999999968e+00
1.455324450032890349e+00 1.709305999999999992e+00
1.487179029585939727e+00 1.731490999999999891e+00
1.519733742648287977e+00 1.740312000000000081e+00
1.552997595959721311e+00 1.738661000000000012e+00
1.586991746055928854e+00 1.730952000000000046e+00
1.621728568046108876e+00 1.719648000000000065e+00
1.657226002538870313e+00 1.703618999999999994e+00
1.693503044918474698e+00 1.679958000000000062e+00
1.730570880722132499e+00 1.647353999999999985e+00
1.768449794594556090e+00 1.607993999999999923e+00
1.807161419272292235e+00 1.567001000000000088e+00
1.846718657952616915e+00 1.530442000000000080e+00
1.887141395956233536e+00 1.503422999999999954e+00
1.928446905999783967e+00 1.488885000000000014e+00
1.970660801980119947e+00 1.486858999999999931e+00
2.013794492272063863e+00 1.494156999999999957e+00
2.057875696076454375e+00 1.505028000000000032e+00
2.102921167794182811e+00 1.512999999999999901e+00
2.148947875120341244e+00 1.513249999999999984e+00
2.195987491655247315e+00 1.504232000000000014e+00
2.244054377925685628e+00 1.487716000000000038e+00
2.293172994677545429e+00 1.467473999999999945e+00
2.343369202504593130e+00 1.447413000000000061e+00
2.394664687077192156e+00 1.430093999999999976e+00
2.447081854888045971e+00 1.416341000000000072e+00
2.500643915808320461e+00 1.405597999999999903e+00
2.555381505681890708e+00 1.396382999999999930e+00
2.611313778074887182e+00 1.386832000000000065e+00
2.668474113132628389e+00 1.375667999999999891e+00
2.726883526623927079e+00 1.363088000000000077e+00
2.786570957242854973e+00 1.350624000000000047e+00
2.847566896465314912e+00 1.340081000000000078e+00
2.909895098281706893e+00 1.332453000000000110e+00
2.973597428432943612e+00 1.327342999999999940e+00
3.038682427299522981e+00 1.323075999999999919e+00
3.105194680180473732e+00 1.317269000000000023e+00
3.173162659491088000e+00 1.307566999999999924e+00
3.242626267866870915e+00 1.292421000000000042e+00
3.313595350363004233e+00 1.271770999999999985e+00
3.386134456627003964e+00 1.247457999999999956e+00
3.460243531939777739e+00 1.223028999999999922e+00
3.535992871438371044e+00 1.202882999999999925e+00
3.613382523514086397e+00 1.190973000000000059e+00
3.692475841976804229e+00 1.189491999999999994e+00
3.773300128292204736e+00 1.198044000000000109e+00
3.855897402281920350e+00 1.213694000000000051e+00
3.940296625529969621e+00 1.232064000000000048e+00
4.026542971266589888e+00 1.249130000000000074e+00
4.114684485993613805e+00 1.262806000000000095e+00
4.204754736656211023e+00 1.273568000000000033e+00
4.296787721499407020e+00 1.283784000000000036e+00
4.390837200929101236e+00 1.296194999999999986e+00
4.486960891648868355e+00 1.312483000000000066e+00
4.585157844058781684e+00 1.332581999999999933e+00
4.685530612914259763e+00 1.354877000000000109e+00
4.788102522851219511e+00 1.376838000000000006e+00
4.892894538551115780e+00 1.395817000000000085e+00
