# frequency(Hz) HVamp
2.000000000000000042e-02 1.526377000000000095e+00
2.043777802275861116e-02 1.540318000000000076e+00
2.088513892042544867e-02 1.551862000000000075e+00
2.134229185993890415e-02 1.558944000000000107e+00
2.180945121728470465e-02 1.559218999999999911e+00
2.228683671448790371e-02 1.551517000000000035e+00
2.277467095838639488e-02 1.536370000000000013e+00
2.327318386720582041e-02 1.515036999999999967e+00
2.378260869151607032e-02 1.488861999999999908e+00
2.430318396985316209e-02 1.460072999999999954e+00
2.483515418061077798e-02 1.431999000000000022e+00
2.537876860438217572e-02 1.407561000000000062e+00
2.593428185548686538e-02 1.387501000000000095e+00
2.650195524800330604e-02 1.369988999999999901e+00
2.708205410122367304e-02 1.351574999999999971e+00
2.767485116257483238e-02 1.328942000000000068e+00
2.828062296556268368e-02 1.300948999999999911e+00
2.889965516642458918e-02 1.269603999999999955e+00
2.953223712425469966e-02 1.238617999999999997e+00
3.017866585007221089e-02 1.210838000000000081e+00
3.083924344304486698e-02 1.186906000000000017e+00
3.151428172097601316e-02 1.165867999999999904e+00
3.220409460893151193e-02 1.146665999999999963e+00
3.290900679366954434e-02 1.129080000000000084e+00
3.362935008254323843e-02 1.113772999999999902e+00
3.436545982617606604e-02 1.101669999999999927e+00
3.511768145762538679e-02 1.093077999999999994e+00
3.588636982920923035e-02 1.087439000000000044e+00
3.667188287528685281e-02 1.084454000000000029e+00
3.747459035401046190e-02 1.085326999999999931e+00
3.829486888200696326e-02 1.092308000000000057e+00
3.913310161841203338e-02 1.106991000000000058e+00
3.998968266187323539e-02 1.129110000000000058e+00
4.086501260624340881e-02 1.156366000000000005e+00
4.175950326235679244e-02 1.184909999999999908e+00
4.267357455111880221e-02 1.210604000000000013e+00
4.360765235805109941e-02 1.231103000000000058e+00
4.456217573218773653e-02 1.247276999999999969e+00
4.553759360593897382e-02 1.262029000000000067e+00
4.653436264861679494e-02 1.277379999999999960e+00
4.755294901990994583e-02 1.292805999999999900e+00
4.859383060501651364e-02 1.306553000000000075e+00
4.965749734357217948e-02 1.317849999999999966e+00
5.074444382592605690e-02 1.327353999999999923e+00
5.185518671652646766e-02 1.336907000000000068e+00
5.299023919793973553e-02 1.348321000000000103e+00
5.415013688613103116e-02 1.362128999999999923e+00
5.533542508618215922e-02 1.377548999999999912e+00
5.654665825930951795e-02 1.393011999999999917e+00
5.778440269534190765e-02 1.406908000000000047e+00
5.904923992113619846e-02 1.418490000000000029e+00
6.034176368113722960e-02 1.428635000000000099e+00
6.166257977365023624e-02 1.440347999999999962e+00
6.301230579922413588e-02 1.457780000000000076e+00
6.439157495481964699e-02 1.483381999999999978e+00
6.580103648476649802e-02 1.515975000000000072e+00
6.724135160227064090e-02 1.550783999999999940e+00
6.871319291929786632e-02 1.580595999999999890e+00
7.021724865648072689e-02 1.597922999999999982e+00
7.175422799231455373e-02 1.597618999999999900e+00
7.332484622679873165e-02 1.578540999999999972e+00
7.492985067379918929e-02 1.543460999999999972e+00
7.656998328017844413e-02 1.497786999999999979e+00
7.824601847091161577e-02 1.447603999999999891e+00
7.995873489609482687e-02 1.397672000000000025e+00
8.170894587125514252e-02 1.350789999999999935e+00
8.349746848200181870e-02 1.308696000000000081e+00
8.532513483931059017e-02 1.272942999999999936e+00
8.719280666320453066e-02 1.244521999999999906e+00
8.910136197668877545e-02 1.222720999999999947e+00
9.105169441740208758e-02 1.204806000000000044e+00
9.304472101470850909e-02 1.187346000000000013e+00
9.508136492722282784e-02 1.168118999999999907e+00
9.716259003207046441e-02 1.147497999999999907e+00
9.928937600698042876e-02 1.128301999999999916e+00
1.014627169666056788e-01 1.113442000000000043e+00
1.036836198025345573e-01 1.103348999999999913e+00
1.059531470945422049e-01 1.095935000000000104e+00
1.082723426204657002e-01 1.088735000000000008e+00
1.106423073612318730e-01 1.080538999999999916e+00
1.130641434367904014e-01 1.071506999999999987e+00
1.155389888050807612e-01 1.062562000000000006e+00
1.180680199308263012e-01 1.054658000000000095e+00
1.206523964642573915e-01 1.048191000000000095e+00
1.232933427266421494e-01 1.042867999999999906e+00
1.259921091142061633e-01 1.037941999999999920e+00
1.287499385219043613e-01 1.032707999999999959e+00
1.315681276210838024e-01 1.027225999999999972e+00
1.344480149355610776e-01 1.022802999999999907e+00
1.373909270603933253e-01 1.021571000000000007e+00
1.403982677661723133e-01 1.025198999999999971e+00
1.434714465996406174e-01 1.033503000000000061e+00
1.466118729226930095e-01 1.044110000000000094e+00
1.498210387691902012e-01 1.053749000000000047e+00
1.531004603883944215e-01 1.060202000000000089e+00
1.564516759885790365e-01 1.063414999999999999e+00
1.598762174374112610e-01 1.065295000000000103e+00
1.633757347823671657e-01 1.068373000000000017e+00
1.669518482487836186e-01 1.074019000000000057e+00
1.706062493069121222e-01 1.081673000000000107e+00
1.743406480276755433e-01 1.089869999999999894e+00
1.781567686922972404e-01 1.097844999999999960e+00
1.820564109071452219e-01 1.105863999999999958e+00
1.860414236112984399e-01 1.114522000000000013e+00
1.901136708649468487e-01 1.124474999999999891e+00
1.942750635716576912e-01 1.136759000000000075e+00
1.985275213739692568e-01 1.152620999999999896e+00
2.028730886819132551e-01 1.172728999999999910e+00
2.073137384534022021e-01 1.196620000000000017e+00
2.118516148918974384e-01 1.222992000000000079e+00
2.164888283105038391e-01 1.250404999999999989e+00
2.212275340673810209e-01 1.277755999999999892e+00
2.260699835805370650e-01 1.304256000000000082e+00
2.310183752015635139e-01 1.329179000000000110e+00
2.360751096568884100e-01 1.352084000000000064e+00
2.412425341466744866e-01 1.373515999999999959e+00
2.465230998307618715e-01 1.395151000000000030e+00
2.519191833183147544e-01 1.418952999999999909e+00
2.574334553825345373e-01 1.445993000000000084e+00
2.630683822583526066e-01 1.475538999999999934e+00
2.688266710467492326e-01 1.504941000000000084e+00
2.747110108843249798e-01 1.530434999999999990e+00
2.807241335168895180e-01 1.548267000000000060e+00
2.868688920234096495e-01 1.555725999999999942e+00
2.931481028187655768e-01 1.552237000000000089e+00
2.995647922697904919e-01 1.539884999999999948e+00
3.061219491886544297e-01 1.522597999999999896e+00
3.128225983045015424e-01 1.504593999999999987e+00
3.196699982673885665e-01 1.489116000000000106e+00
3.266672524899394969e-01 1.477678000000000047e+00
3.338175913859038335e-01 1.470029000000000030e+00
3.411245032800827026e-01 1.465181000000000067e+00
3.485912903071751723e-01 1.463073999999999986e+00
3.562216425308692980e-01 1.465209999999999901e+00
3.640189144227933826e-01 1.473325999999999913e+00
3.719868599361595973e-01 1.487544999999999895e+00
3.801292743636255911e-01 1.505864000000000091e+00
3.884498326752345854e-01 1.524834999999999940e+00
3.969526737144291051e-01 1.540564999999999962e+00
4.056414997215270768e-01 1.550216000000000038e+00
4.145204868460213854e-01 1.553736000000000006e+00
4.235940173275368759e-01 1.554389000000000021e+00
4.328659535344370757e-01 1.557344999999999979e+00
4.423408678727827614e-01 1.567010000000000014e+00
4.520233696082087693e-01 1.584902999999999951e+00
4.619176604055267865e-01 1.609653999999999918e+00
4.720285331807737017e-01 1.638663999999999898e+00
4.823605567984378673e-01 1.669977000000000045e+00
4.929189725005434508e-01 1.703168999999999933e+00
5.037085542305222985e-01 1.738432999999999895e+00
5.147340034826902722e-01 1.774729999999999919e+00
5.260010193899755659e-01 1.809374999999999956e+00
5.375147682182568332e-01 1.839558999999999944e+00
5.492803329078241870e-01 1.864193999999999907e+00
5.613033013614973088e-01 1.884495999999999949e+00
5.735898580135665448e-01 1.902625999999999928e+00
5.861448258358571417e-01 1.919130999999999920e+00
5.989749143316128732e-01 1.931354000000000015e+00
6.120861303119130570e-01 1.934525000000000050e+00
6.254839682204105245e-01 1.924979999999999913e+00
6.391749019026319312e-01 1.903073999999999932e+00
6.531657310067570110e-01 1.873348000000000013e+00
6.674631727194452191e-01 1.841865000000000085e+00
6.820728740300071591e-01 1.813039999999999985e+00
6.970030263871405118e-01 1.788602999999999943e+00
7.122593364734473020e-01 1.768934000000000006e+00
7.278502433567288765e-01 1.754440999999999917e+00
7.437819826252529687e-01 1.745603000000000016e+00
7.600626595656545526e-01 1.742615000000000025e+00
7.766996323880640540e-01 1.745284999999999975e+00
7.937005574159013976e-01 1.752890999999999977e+00
8.110740810733430006e-01 1.764169000000000098e+00
8.288272757110509703e-01 1.777625000000000011e+00
8.469695429752346350e-01 1.791765999999999970e+00
8.655086161382736787e-01 1.804944000000000104e+00
8.844540397880493732e-01 1.815199000000000007e+00
9.038134601323364326e-01 1.820697000000000010e+00
9.235972635660274488e-01 1.820476999999999901e+00
9.438138195107080852e-01 1.814767000000000019e+00
9.644726842046378312e-01 1.804666000000000103e+00
9.855838648094324972e-01 1.791665999999999981e+00
1.007156856623164121e+00 1.777411000000000074e+00
1.029202594413900052e+00 1.763611000000000040e+00
1.051730412046940843e+00 1.751778999999999975e+00
1.074752242739242414e+00 1.742706000000000088e+00
1.098277132661993116e+00 1.735840000000000050e+00
1.122316821060050707e+00 1.729141000000000039e+00
1.146883687643933891e+00 1.719969000000000081e+00
1.171988078537265165e+00 1.706750999999999907e+00
1.197640647923590596e+00 1.690218999999999916e+00
1.223856887071053556e+00 1.673167999999999989e+00
1.250645645814651763e+00 1.658770999999999995e+00
1.278020601692099190e+00 1.648638000000000048e+00
1.305994514823037633e+00 1.641925999999999997e+00
1.334582502555725414e+00 1.635680999999999941e+00
1.363795059788775355e+00 1.625896999999999926e+00
1.393646643680787944e+00 1.609228000000000103e+00
1.424152486855072564e+00 1.584999999999999964e+00
1.455324450032890349e+00 1.556121000000000087e+00
1.487179029585939727e+00 1.527991000000000099e+00
1.519733742648287977e+00 1.506015000000000104e+00
1.552997595959721311e+00 1.493390999999999913e+00
1.586991746055928854e+00 1.490270999999999901e+00
1.621728568046108876e+00 1.494350000000000067e+00
1.657226002538870313e+00 1.502283999999999953e+00
1.693503044918474698e+00 1.511109000000000036e+00
1.730570880722132499e+00 1.518961000000000006e+00
1.768449794594556090e+00 1.524869999999999948e+00
1.807161419272292235e+00 1.528154000000000012e+00
1.846718657952616915e+00 1.528210000000000068e+00
1.887141395956233536e+00 1.524785000000000057e+00
1.928446905999783967e+00 1.518280000000000074e+00
1.970660801980119947e+00 1.509725999999999901e+00
2.013794492272063863e+00 1.500440999999999914e+00
2.057875696076454375e+00 1.491624999999999979e+00
2.102921167794182811e+00 1.484151999999999916e+00
2.148947875120341244e+00 1.478642000000000012e+00
2.195987491655247315e+00 1.475452999999999903e+00
2.244054377925685628e+00 1.474339999999999984e+00
2.293172994677545429e+00 1.474004000000000092e+00
2.343369202504593130e+00 1.472248000000000001e+00
2.394664687077192156e+00 1.466971999999999943e+00
2.447081854888045971e+00 1.457221000000000100e+00
2.500643915808320461e+00 1.443438999999999917e+00
2.555381505681890708e+00 1.427049999999999930e+00
2.611313778074887182e+00 1.409766000000000075e+00
2.668474113132628389e+00 1.392703000000000024e+00
2.726883526623927079e+00 1.375655999999999990e+00
2.786570957242854973e+00 1.357258999999999993e+00
2.847566896465314912e+00 1.336181999999999981e+00
2.909895098281706893e+00 1.312573999999999907e+00
2.973597428432943612e+00 1.288572000000000051e+00
3.038682427299522981e+00 1.267454999999999998e+00
3.105194680180473732e+00 1.252293000000000101e+00
3.173162659491088000e+00 1.244817999999999980e+00
3.242626267866870915e+00 1.244725999999999999e+00
3.313595350363004233e+00 1.249548000000000103e+00
3.386134456627003964e+00 1.255351000000000106e+00
3.460243531939777739e+00 1.258299999999999974e+00
3.535992871438371044e+00 1.256231000000000098e+00
3.613382523514086397e+00 1.249203000000000063e+00
3.692475841976804229e+00 1.238779999999999992e+00
3.773300128292204736e+00 1.226900000000000102e+00
3.855897402281920350e+00 1.215092999999999979e+00
3.940296625529969621e+00 1.204153000000000029e+00
4.026542971266589888e+00 1.194355000000000055e+00
4.114684485993613805e+00 1.186018999999999934e+00
4.204754736656211023e+00 1.179894999999999916e+00
4.296787721499407020e+00 1.177113999999999994e+00
4.390837200929101236e+00 1.178886000000000100e+00
4.486960891648868355e+00 1.186031999999999975e+00
4.585157844058781684e+00 1.198628000000000027e+00
4.685530612914259763e+00 1.216055000000000108e+00
4.788102522851219511e+00 1.237367000000000106e+00
4.892894538551115780e+00 1.261557000000000039e+00
