# frequency(Hz) HVamp
2.000000000000000042e-02 3.608509999999999773e-01
2.043777802275861116e-02 3.626030000000000086e-01
2.088513892042544867e-02 3.636670000000000180e-01
2.134229185993890415e-02 3.618600000000000150e-01
2.180945121728470465e-02 3.552910000000000235e-01
2.228683671448790371e-02 3.434699999999999975e-01
2.277467095838639488e-02 3.275870000000000171e-01
2.327318386720582041e-02 3.097010000000000041e-01
2.378260869151607032e-02 2.916349999999999776e-01
2.430318396985316209e-02 2.741709999999999980e-01
2.483515418061077798e-02 2.563360000000000083e-01
2.537876860438217572e-02 2.355970000000000009e-01
2.593428185548686538e-02 2.095920000000000005e-01
2.650195524800330604e-02 1.785259999999999903e-01
2.708205410122367304e-02 1.460309999999999941e-01
2.767485116257483238e-02 1.170729999999999965e-01
2.828062296556268368e-02 9.489400000000000612e-02
2.889965516642458918e-02 8.013199999999999490e-02
2.953223712425469966e-02 7.209999999999999742e-02
3.017866585007221089e-02 7.023200000000000276e-02
3.083924344304486698e-02 7.428800000000000681e-02
3.151428172097601316e-02 8.347899999999999765e-02
3.220409460893151193e-02 9.612999999999999323e-02
3.290900679366954434e-02 1.107100000000000029e-01
3.362935008254323843e-02 1.271130000000000038e-01
3.436545982617606604e-02 1.468190000000000051e-01
3.511768145762538679e-02 1.718600000000000128e-01
3.588636982920923035e-02 2.030710000000000015e-01
3.667188287528685281e-02 2.385480000000000100e-01
3.747459035401046190e-02 2.739340000000000108e-01
3.829486888200696326e-02 3.047529999999999961e-01
3.913310161841203338e-02 3.289650000000000074e-01
3.998968266187323539e-02 3.475509999999999988e-01
4.086501260624340881e-02 3.626770000000000271e-01
4.175950326235679244e-02 3.753529999999999922e-01
4.267357455111880221e-02 3.847610000000000197e-01
4.360765235805109941e-02 3.897160000000000069e-01
4.456217573218773653e-02 3.902559999999999918e-01
4.553759360593897382e-02 3.871100000000000096e-01
4.653436264861679494e-02 3.801450000000000107e-01
4.755294901990994583e-02 3.681559999999999833e-01
4.859383060501651364e-02 3.499280000000000168e-01
4.965749734357217948e-02 3.256279999999999730e-01
5.074444382592605690e-02 2.974319999999999742e-01
5.185518671652646766e-02 2.688450000000000006e-01
5.299023919793973553e-02 2.434000000000000052e-01
5.415013688613103116e-02 2.235240000000000005e-01
5.533542508618215922e-02 2.100629999999999997e-01
5.654665825930951795e-02 2.024070000000000036e-01
5.778440269534190765e-02 1.988429999999999920e-01
5.904923992113619846e-02 1.970089999999999897e-01
6.034176368113722960e-02 1.944130000000000025e-01
6.166257977365023624e-02 1.889560000000000128e-01
6.301230579922413588e-02 1.795760000000000134e-01
6.439157495481964699e-02 1.665470000000000006e-01
6.580103648476649802e-02 1.511139999999999983e-01
6.724135160227064090e-02 1.349509999999999876e-01
6.871319291929786632e-02 1.197109999999999980e-01
7.021724865648072689e-02 1.065610000000000029e-01
7.175422799231455373e-02 9.571200000000000541e-02
7.332484622679873165e-02 8.644899999999999807e-02
7.492985067379918929e-02 7.784499999999999753e-02
7.656998328017844413e-02 6.930799999999999461e-02
7.824601847091161577e-02 6.063700000000000340e-02
7.995873489609482687e-02 5.196800000000000030e-02
8.170894587125514252e-02 4.353300000000000225e-02
8.349746848200181870e-02 3.529199999999999698e-02
8.532513483931059017e-02 2.695900000000000032e-02
8.719280666320453066e-02 1.845899999999999971e-02
8.910136197668877545e-02 1.024500000000000063e-02
9.105169441740208758e-02 3.122000000000000209e-03
9.304472101470850909e-02 -2.265000000000000086e-03
9.508136492722282784e-02 -6.119999999999999572e-03
9.716259003207046441e-02 -9.971000000000000696e-03
9.928937600698042876e-02 -1.608499999999999860e-02
1.014627169666056788e-01 -2.593499999999999972e-02
1.036836198025345573e-01 -3.896399999999999864e-02
1.059531470945422049e-01 -5.267399999999999860e-02
1.082723426204657002e-01 -6.396399999999999308e-02
1.106423073612318730e-01 -7.062999999999999834e-02
1.130641434367904014e-01 -7.207500000000000018e-02
1.155389888050807612e-01 -6.914800000000000113e-02
1.180680199308263012e-01 -6.355199999999999738e-02
1.206523964642573915e-01 -5.715200000000000141e-02
1.232933427266421494e-01 -5.149100000000000205e-02
1.259921091142061633e-01 -4.776500000000000190e-02
1.287499385219043613e-01 -4.704799999999999954e-02
1.315681276210838024e-01 -5.025099999999999706e-02
1.344480149355610776e-01 -5.763499999999999873e-02
1.373909270603933253e-01 -6.822100000000000386e-02
1.403982677661723133e-01 -7.964300000000000546e-02
1.434714465996406174e-01 -8.871500000000000219e-02
1.466118729226930095e-01 -9.251600000000000101e-02
1.498210387691902012e-01 -8.962599999999999734e-02
1.531004603883944215e-01 -8.091500000000000081e-02
1.564516759885790365e-01 -6.932099999999999373e-02
1.598762174374112610e-01 -5.851800000000000057e-02
1.633757347823671657e-01 -5.113999999999999796e-02
1.669518482487836186e-01 -4.756400000000000211e-02
1.706062493069121222e-01 -4.612299999999999733e-02
1.743406480276755433e-01 -4.455599999999999838e-02
1.781567686922972404e-01 -4.145499999999999879e-02
1.820564109071452219e-01 -3.663899999999999796e-02
1.860414236112984399e-01 -3.070399999999999865e-02
1.901136708649468487e-01 -2.460000000000000034e-02
1.942750635716576912e-01 -1.947000000000000119e-02
1.985275213739692568e-01 -1.651599999999999943e-02
2.028730886819132551e-01 -1.665600000000000067e-02
2.073137384534022021e-01 -1.992199999999999874e-02
2.118516148918974384e-01 -2.496699999999999961e-02
2.164888283105038391e-01 -2.935700000000000115e-02
2.212275340673810209e-01 -3.068600000000000147e-02
2.260699835805370650e-01 -2.758599999999999941e-02
2.310183752015635139e-01 -2.008400000000000116e-02
2.360751096568884100e-01 -9.508000000000000826e-03
2.412425341466744866e-01 1.794999999999999938e-03
2.465230998307618715e-01 1.114799999999999992e-02
2.519191833183147544e-01 1.667799999999999838e-02
2.574334553825345373e-01 1.820099999999999843e-02
2.630683822583526066e-01 1.714900000000000105e-02
2.688266710467492326e-01 1.566400000000000084e-02
2.747110108843249798e-01 1.559699999999999975e-02
2.807241335168895180e-01 1.796100000000000127e-02
2.868688920234096495e-01 2.277600000000000111e-02
2.931481028187655768e-01 2.919700000000000073e-02
2.995647922697904919e-01 3.583900000000000280e-02
3.061219491886544297e-01 4.118200000000000333e-02
3.128225983045015424e-01 4.405200000000000088e-02
3.196699982673885665e-01 4.407300000000000106e-02
3.266672524899394969e-01 4.183800000000000019e-02
3.338175913859038335e-01 3.858400000000000024e-02
3.411245032800827026e-01 3.558200000000000252e-02
3.485912903071751723e-01 3.352999999999999731e-02
3.562216425308692980e-01 3.237299999999999900e-02
3.640189144227933826e-01 3.169099999999999695e-02
3.719868599361595973e-01 3.122700000000000128e-02
3.801292743636255911e-01 3.105700000000000127e-02
3.884498326752345854e-01 3.135299999999999893e-02
3.969526737144291051e-01 3.199799999999999867e-02
4.056414997215270768e-01 3.244299999999999962e-02
4.145204868460213854e-01 3.194099999999999717e-02
4.235940173275368759e-01 2.998500000000000124e-02
4.328659535344370757e-01 2.664499999999999855e-02
4.423408678727827614e-01 2.256700000000000025e-02
4.520233696082087693e-01 1.858200000000000129e-02
4.619176604055267865e-01 1.514700000000000074e-02
4.720285331807737017e-01 1.212500000000000036e-02
4.823605567984378673e-01 9.107999999999999777e-03
4.929189725005434508e-01 5.875000000000000014e-03
5.037085542305222985e-01 2.595999999999999783e-03
5.147340034826902722e-01 -1.900000000000000105e-04
5.260010193899755659e-01 -1.789000000000000009e-03
5.375147682182568332e-01 -1.691999999999999928e-03
5.492803329078241870e-01 1.630000000000000047e-04
5.613033013614973088e-01 3.428000000000000057e-03
5.735898580135665448e-01 7.660000000000000142e-03
5.861448258358571417e-01 1.268900000000000063e-02
5.989749143316128732e-01 1.871000000000000094e-02
6.120861303119130570e-01 2.592200000000000060e-02
6.254839682204105245e-01 3.404599999999999987e-02
6.391749019026319312e-01 4.215300000000000297e-02
6.531657310067570110e-01 4.898700000000000276e-02
6.674631727194452191e-01 5.361400000000000193e-02
6.820728740300071591e-01 5.592899999999999955e-02
6.970030263871405118e-01 5.658500000000000335e-02
7.122593364734473020e-01 5.648700000000000249e-02
7.278502433567288765e-01 5.644899999999999918e-02
7.437819826252529687e-01 5.714700000000000335e-02
7.600626595656545526e-01 5.901599999999999902e-02
7.766996323880640540e-01 6.198499999999999843e-02
7.937005574159013976e-01 6.538199999999999568e-02
8.110740810733430006e-01 6.830200000000000160e-02
8.288272757110509703e-01 7.020099999999999951e-02
8.469695429752346350e-01 7.121500000000000052e-02
8.655086161382736787e-01 7.202300000000000368e-02
8.844540397880493732e-01 7.336199999999999666e-02
9.038134601323364326e-01 7.551900000000000279e-02
9.235972635660274488e-01 7.813299999999999412e-02
9.438138195107080852e-01 8.046300000000000674e-02
9.644726842046378312e-01 8.190899999999999570e-02
9.855838648094324972e-01 8.235000000000000653e-02
1.007156856623164121e+00 8.212999999999999468e-02
1.029202594413900052e+00 8.186899999999999733e-02
1.051730412046940843e+00 8.228199999999999403e-02
1.074752242739242414e+00 8.410900000000000321e-02
1.098277132661993116e+00 8.804599999999999926e-02
1.122316821060050707e+00 9.450100000000000167e-02
1.146883687643933891e+00 1.033820000000000017e-01
1.171988078537265165e+00 1.142100000000000060e-01
1.197640647923590596e+00 1.265499999999999958e-01
1.223856887071053556e+00 1.403719999999999968e-01
1.250645645814651763e+00 1.560179999999999900e-01
1.278020601692099190e+00 1.736999999999999933e-01
1.305994514823037633e+00 1.927339999999999887e-01
1.334582502555725414e+00 2.110750000000000126e-01
1.363795059788775355e+00 2.259470000000000089e-01
1.393646643680787944e+00 2.355410000000000004e-01
1.424152486855072564e+00 2.404729999999999923e-01
1.455324450032890349e+00 2.436580000000000135e-01
1.487179029585939727e+00 2.487810000000000021e-01
1.519733742648287977e+00 2.585609999999999853e-01
1.552997595959721311e+00 2.736870000000000136e-01
1.586991746055928854e+00 2.927120000000000277e-01
1.621728568046108876e+00 3.128699999999999815e-01
1.657226002538870313e+00 3.314880000000000049e-01
1.693503044918474698e+00 3.471790000000000154e-01
1.730570880722132499e+00 3.601809999999999734e-01
1.768449794594556090e+00 3.718739999999999823e-01
1.807161419272292235e+00 3.839839999999999920e-01
1.846718657952616915e+00 3.979779999999999984e-01
1.887141395956233536e+00 4.148589999999999778e-01
1.928446905999783967e+00 4.351550000000000140e-01
1.970660801980119947e+00 4.587939999999999796e-01
2.013794492272063863e+00 4.848500000000000032e-01
2.057875696076454375e+00 5.115349999999999620e-01
2.102921167794182811e+00 5.365750000000000242e-01
2.148947875120341244e+00 5.577079999999999815e-01
2.195987491655247315e+00 5.732089999999999685e-01
2.244054377925685628e+00 5.823460000000000303e-01
2.293172994677545429e+00 5.854730000000000212e-01
2.343369202504593130e+00 5.836670000000000469e-01
2.394664687077192156e+00 5.782000000000000473e-01
2.447081854888045971e+00 5.702960000000000251e-01
2.500643915808320461e+00 5.612289999999999779e-01
2.555381505681890708e+00 5.523289999999999589e-01
2.611313778074887182e+00 5.447659999999999725e-01
2.668474113132628389e+00 5.392360000000000486e-01
2.726883526623927079e+00 5.356729999999999547e-01
2.786570957242854973e+00 5.332519999999999483e-01
2.847566896465314912e+00 5.308129999999999793e-01
2.909895098281706893e+00 5.273489999999999567e-01
2.973597428432943612e+00 5.222510000000000208e-01
3.038682427299522981e+00 5.152980000000000338e-01
3.105194680180473732e+00 5.064939999999999998e-01
3.173162659491088000e+00 4.959160000000000235e-01
3.242626267866870915e+00 4.837310000000000221e-01
3.313595350363004233e+00 4.704010000000000136e-01
3.386134456627003964e+00 4.567950000000000066e-01
3.460243531939777739e+00 4.439770000000000105e-01
3.535992871438371044e+00 4.327670000000000128e-01
3.613382523514086397e+00 4.234289999999999998e-01
3.692475841976804229e+00 4.155820000000000070e-01
3.773300128292204736e+00 4.083860000000000268e-01
3.855897402281920350e+00 4.009750000000000258e-01
3.940296625529969621e+00 3.929289999999999727e-01
4.026542971266589888e+00 3.844549999999999912e-01
4.114684485993613805e+00 3.762249999999999761e-01
4.204754736656211023e+00 3.690450000000000119e-01
4.296787721499407020e+00 3.635229999999999850e-01
4.390837200929101236e+00 3.598270000000000080e-01
4.486960891648868355e+00 3.576179999999999914e-01
4.585157844058781684e+00 3.561409999999999854e-01
4.685530612914259763e+00 3.544200000000000128e-01
4.788102522851219511e+00 3.514510000000000134e-01
4.892894538551115780e+00 3.464039999999999897e-01
