# frequency(Hz) HVamp
2.000000000000000042e-02 1.141321999999999948e+00
2.043777802275861116e-02 1.069709000000000021e+00
2.088513892042544867e-02 1.014024000000000036e+00
2.134229185993890415e-02 9.769619999999999971e-01
2.180945121728470465e-02 9.589379999999999571e-01
2.228683671448790371e-02 9.574570000000000025e-01
2.277467095838639488e-02 9.679710000000000258e-01
2.327318386720582041e-02 9.857970000000000343e-01
2.378260869151607032e-02 1.007273000000000085e+00
2.430318396985316209e-02 1.029420999999999919e+00
2.483515418061077798e-02 1.049892999999999965e+00
2.537876860438217572e-02 1.067798000000000025e+00
2.593428185548686538e-02 1.084505999999999970e+00
2.650195524800330604e-02 1.103612000000000037e+00
2.708205410122367304e-02 1.129944000000000059e+00
2.767485116257483238e-02 1.167942999999999953e+00
2.828062296556268368e-02 1.220005999999999924e+00
2.889965516642458918e-02 1.285166000000000031e+00
2.953223712425469966e-02 1.357806000000000068e+00
3.017866585007221089e-02 1.427097999999999978e+00
3.083924344304486698e-02 1.479762000000000022e+00
3.151428172097601316e-02 1.506461999999999968e+00
3.220409460893151193e-02 1.507071999999999967e+00
3.290900679366954434e-02 1.490321000000000007e+00
3.362935008254323843e-02 1.468971999999999944e+00
3.436545982617606604e-02 1.454469999999999930e+00
3.511768145762538679e-02 1.452944000000000013e+00
3.588636982920923035e-02 1.463500000000000023e+00
3.667188287528685281e-02 1.479575000000000085e+00
3.747459035401046190e-02 1.492415999999999965e+00
3.829486888200696326e-02 1.494855000000000045e+00
3.913310161841203338e-02 1.483592000000000022e+00
3.998968266187323539e-02 1.459079000000000015e+00
4.086501260624340881e-02 1.423920999999999992e+00
4.175950326235679244e-02 1.381043999999999938e+00
4.267357455111880221e-02 1.332575000000000065e+00
4.360765235805109941e-02 1.279991000000000101e+00
4.456217573218773653e-02 1.225525999999999893e+00
4.553759360593897382e-02 1.173527999999999905e+00
4.653436264861679494e-02 1.129631999999999969e+00
4.755294901990994583e-02 1.097703000000000095e+00
4.859383060501651364e-02 1.077252000000000098e+00
4.965749734357217948e-02 1.063870000000000093e+00
5.074444382592605690e-02 1.052710000000000035e+00
5.185518671652646766e-02 1.040688000000000057e+00
5.299023919793973553e-02 1.025765999999999956e+00
5.415013688613103116e-02 1.006397999999999904e+00
5.533542508618215922e-02 9.824150000000000382e-01
5.654665825930951795e-02 9.557170000000000387e-01
5.778440269534190765e-02 9.293979999999999464e-01
5.904923992113619846e-02 9.061919999999999975e-01
6.034176368113722960e-02 8.880179999999999740e-01
6.166257977365023624e-02 8.764969999999999706e-01
6.301230579922413588e-02 8.730869999999999465e-01
6.439157495481964699e-02 8.787669999999999648e-01
6.580103648476649802e-02 8.935469999999999802e-01
6.724135160227064090e-02 9.163700000000000179e-01
6.871319291929786632e-02 9.453869999999999774e-01
7.021724865648072689e-02 9.777270000000000127e-01
7.175422799231455373e-02 1.009487999999999941e+00
7.332484622679873165e-02 1.037012999999999963e+00
7.492985067379918929e-02 1.058286999999999978e+00
7.656998328017844413e-02 1.072731000000000101e+00
7.824601847091161577e-02 1.080300000000000038e+00
7.995873489609482687e-02 1.081601999999999952e+00
8.170894587125514252e-02 1.078735999999999917e+00
8.349746848200181870e-02 1.075198000000000098e+00
8.532513483931059017e-02 1.074489999999999945e+00
8.719280666320453066e-02 1.078418000000000099e+00
8.910136197668877545e-02 1.086311999999999944e+00
9.105169441740208758e-02 1.095736000000000043e+00
9.304472101470850909e-02 1.103795999999999999e+00
9.508136492722282784e-02 1.107984999999999998e+00
9.716259003207046441e-02 1.106624999999999970e+00
9.928937600698042876e-02 1.099164000000000030e+00
1.014627169666056788e-01 1.086303999999999936e+00
1.036836198025345573e-01 1.069860999999999951e+00
1.059531470945422049e-01 1.052283000000000079e+00
1.082723426204657002e-01 1.036056000000000088e+00
1.106423073612318730e-01 1.023085999999999940e+00
1.130641434367904014e-01 1.014094999999999969e+00
1.155389888050807612e-01 1.008418999999999954e+00
1.180680199308263012e-01 1.004580000000000028e+00
1.206523964642573915e-01 1.001238999999999990e+00
1.232933427266421494e-01 9.977390000000000425e-01
1.259921091142061633e-01 9.939390000000000169e-01
1.287499385219043613e-01 9.898090000000000499e-01
1.315681276210838024e-01 9.852600000000000247e-01
1.344480149355610776e-01 9.803680000000000172e-01
1.373909270603933253e-01 9.756280000000000507e-01
1.403982677661723133e-01 9.716879999999999962e-01
1.434714465996406174e-01 9.686329999999999663e-01
1.466118729226930095e-01 9.655679999999999819e-01
1.498210387691902012e-01 9.610619999999999719e-01
1.531004603883944215e-01 9.540300000000000447e-01
1.564516759885790365e-01 9.443070000000000075e-01
1.598762174374112610e-01 9.327250000000000263e-01
1.633757347823671657e-01 9.206959999999999589e-01
1.669518482487836186e-01 9.093630000000000324e-01
1.706062493069121222e-01 8.988439999999999763e-01
1.743406480276755433e-01 8.882679999999999465e-01
1.781567686922972404e-01 8.764859999999999873e-01
1.820564109071452219e-01 8.627129999999999521e-01
1.860414236112984399e-01 8.467829999999999524e-01
1.901136708649468487e-01 8.293220000000000036e-01
1.942750635716576912e-01 8.116980000000000306e-01
1.985275213739692568e-01 7.954909999999999481e-01
2.028730886819132551e-01 7.817929999999999602e-01
2.073137384534022021e-01 7.709639999999999826e-01
2.118516148918974384e-01 7.629369999999999763e-01
2.164888283105038391e-01 7.574980000000000047e-01
2.212275340673810209e-01 7.541799999999999615e-01
2.260699835805370650e-01 7.519390000000000240e-01
2.310183752015635139e-01 7.491299999999999626e-01
2.360751096568884100e-01 7.440769999999999884e-01
2.412425341466744866e-01 7.359850000000000003e-01
2.465230998307618715e-01 7.254369999999999985e-01
2.519191833183147544e-01 7.140570000000000528e-01
2.574334553825345373e-01 7.037520000000000442e-01
2.630683822583526066e-01 6.960739999999999705e-01
2.688266710467492326e-01 6.918029999999999458e-01
2.747110108843249798e-01 6.907200000000000006e-01
2.807241335168895180e-01 6.916809999999999903e-01
2.868688920234096495e-01 6.931110000000000326e-01
2.931481028187655768e-01 6.936179999999999568e-01
2.995647922697904919e-01 6.922920000000000185e-01
3.061219491886544297e-01 6.887050000000000116e-01
3.128225983045015424e-01 6.828530000000000433e-01
3.196699982673885665e-01 6.751289999999999791e-01
3.266672524899394969e-01 6.662350000000000216e-01
3.338175913859038335e-01 6.570709999999999607e-01
3.411245032800827026e-01 6.485539999999999639e-01
3.485912903071751723e-01 6.413489999999999469e-01
3.562216425308692980e-01 6.355469999999999731e-01
3.640189144227933826e-01 6.305720000000000214e-01
3.719868599361595973e-01 6.255340000000000344e-01
3.801292743636255911e-01 6.198380000000000001e-01
3.884498326752345854e-01 6.135460000000000358e-01
3.969526737144291051e-01 6.072790000000000132e-01
4.056414997215270768e-01 6.018839999999999746e-01
4.145204868460213854e-01 5.981429999999999803e-01
4.235940173275368759e-01 5.966709999999999514e-01
4.328659535344370757e-01 5.979069999999999663e-01
4.423408678727827614e-01 6.020459999999999701e-01
4.520233696082087693e-01 6.088449999999999696e-01
4.619176604055267865e-01 6.175209999999999866e-01
4.720285331807737017e-01 6.270050000000000345e-01
4.823605567984378673e-01 6.364870000000000250e-01
4.929189725005434508e-01 6.458770000000000344e-01
5.037085542305222985e-01 6.557979999999999920e-01
5.147340034826902722e-01 6.670390000000000486e-01
5.260010193899755659e-01 6.799159999999999648e-01
5.375147682182568332e-01 6.940330000000000110e-01
5.492803329078241870e-01 7.085939999999999461e-01
5.613033013614973088e-01 7.230429999999999913e-01
5.735898580135665448e-01 7.374810000000000532e-01
5.861448258358571417e-01 7.524899999999999922e-01
5.989749143316128732e-01 7.685729999999999507e-01
6.120861303119130570e-01 7.856929999999999747e-01
6.254839682204105245e-01 8.031409999999999938e-01
6.391749019026319312e-01 8.197719999999999452e-01
6.531657310067570110e-01 8.344920000000000115e-01
6.674631727194452191e-01 8.466939999999999467e-01
6.820728740300071591e-01 8.563929999999999598e-01
6.970030263871405118e-01 8.640870000000000495e-01
7.122593364734473020e-01 8.705249999999999932e-01
7.278502433567288765e-01 8.763389999999999791e-01
7.437819826252529687e-01 8.815140000000000198e-01
7.600626595656545526e-01 8.852029999999999621e-01
7.766996323880640540e-01 8.863189999999999680e-01
7.937005574159013976e-01 8.845650000000000457e-01
8.110740810733430006e-01 8.809460000000000068e-01
8.288272757110509703e-01 8.772259999999999502e-01
8.469695429752346350e-01 8.748280000000000500e-01
8.655086161382736787e-01 8.739109999999999934e-01
8.844540397880493732e-01 8.731299999999999617e-01
9.038134601323364326e-01 8.704070000000000418e-01
9.235972635660274488e-01 8.645319999999999672e-01
9.438138195107080852e-01 8.563640000000000141e-01
9.644726842046378312e-01 8.483889999999999487e-01
9.855838648094324972e-01 8.429349999999999898e-01
1.007156856623164121e+00 8.405289999999999706e-01
1.029202594413900052e+00 8.397569999999999757e-01
1.051730412046940843e+00 8.386489999999999778e-01
1.074752242739242414e+00 8.363850000000000451e-01
1.098277132661993116e+00 8.339809999999999723e-01
1.122316821060050707e+00 8.335749999999999549e-01
1.146883687643933891e+00 8.370360000000000023e-01
1.171988078537265165e+00 8.448809999999999931e-01
1.197640647923590596e+00 8.560429999999999984e-01
1.223856887071053556e+00 8.685190000000000410e-01
1.250645645814651763e+00 8.804899999999999949e-01
1.278020601692099190e+00 8.913579999999999837e-01
1.305994514823037633e+00 9.023010000000000197e-01
1.334582502555725414e+00 9.162200000000000344e-01
1.363795059788775355e+00 9.369920000000000471e-01
1.393646643680787944e+00 9.681549999999999878e-01
1.424152486855072564e+00 1.011355000000000004e+00
1.455324450032890349e+00 1.064931999999999990e+00
1.487179029585939727e+00 1.123388999999999971e+00
1.519733742648287977e+00 1.178879000000000010e+00
1.552997595959721311e+00 1.224685999999999941e+00
1.586991746055928854e+00 1.258750000000000036e+00
1.621728568046108876e+00 1.284828999999999999e+00
1.657226002538870313e+00 1.310526999999999997e+00
1.693503044918474698e+00 1.343801000000000023e+00
1.730570880722132499e+00 1.389761999999999942e+00
1.768449794594556090e+00 1.448701000000000016e+00
1.807161419272292235e+00 1.516067999999999971e+00
1.846718657952616915e+00 1.585020000000000095e+00
1.887141395956233536e+00 1.650727000000000055e+00
1.928446905999783967e+00 1.713654000000000011e+00
1.970660801980119947e+00 1.779295999999999989e+00
2.013794492272063863e+00 1.854667000000000066e+00
2.057875696076454375e+00 1.944093999999999989e+00
2.102921167794182811e+00 2.046737999999999946e+00
2.148947875120341244e+00 2.157001999999999864e+00
2.195987491655247315e+00 2.267460999999999949e+00
2.244054377925685628e+00 2.372192000000000078e+00
2.293172994677545429e+00 2.467906999999999851e+00
2.343369202504593130e+00 2.552163000000000181e+00
2.394664687077192156e+00 2.620734000000000119e+00
2.447081854888045971e+00 2.667386000000000035e+00
2.500643915808320461e+00 2.687695999999999863e+00
2.555381505681890708e+00 2.684196000000000026e+00
2.611313778074887182e+00 2.667107000000000117e+00
2.668474113132628389e+00 2.648690999999999907e+00
2.726883526623927079e+00 2.636064999999999880e+00
2.786570957242854973e+00 2.628162000000000109e+00
2.847566896465314912e+00 2.617890000000000050e+00
2.909895098281706893e+00 2.596891999999999978e+00
2.973597428432943612e+00 2.559788999999999870e+00
3.038682427299522981e+00 2.505752999999999897e+00
3.105194680180473732e+00 2.437434000000000101e+00
3.173162659491088000e+00 2.358871999999999858e+00
3.242626267866870915e+00 2.274049999999999905e+00
3.313595350363004233e+00 2.187216999999999967e+00
3.386134456627003964e+00 2.103889000000000120e+00
3.460243531939777739e+00 2.030215000000000103e+00
3.535992871438371044e+00 1.970736999999999961e+00
3.613382523514086397e+00 1.926315000000000000e+00
3.692475841976804229e+00 1.893550000000000066e+00
3.773300128292204736e+00 1.865955999999999948e+00
3.855897402281920350e+00 1.836540999999999979e+00
3.940296625529969621e+00 1.800864999999999938e+00
4.026542971266589888e+00 1.759025999999999978e+00
4.114684485993613805e+00 1.715351999999999988e+00
4.204754736656211023e+00 1.676096000000000030e+00
4.296787721499407020e+00 1.646854999999999958e+00
4.390837200929101236e+00 1.630914999999999893e+00
4.486960891648868355e+00 1.628611999999999949e+00
4.585157844058781684e+00 1.637496000000000063e+00
4.685530612914259763e+00 1.652948000000000084e+00
4.788102522851219511e+00 1.669135999999999953e+00
4.892894538551115780e+00 1.680311000000000110e+00
