# frequency(Hz) HVamp
2.000000000000000042e-02 1.189284000000000008e+00
2.043777802275861116e-02 1.161845999999999934e+00
2.088513892042544867e-02 1.138670000000000071e+00
2.134229185993890415e-02 1.120460000000000012e+00
2.180945121728470465e-02 1.106594000000000078e+00
2.228683671448790371e-02 1.095307000000000031e+00
2.277467095838639488e-02 1.084580000000000100e+00
2.327318386720582041e-02 1.072805000000000009e+00
2.378260869151607032e-02 1.059555999999999942e+00
2.430318396985316209e-02 1.046859999999999902e+00
2.483515418061077798e-02 1.036526999999999976e+00
2.537876860438217572e-02 1.028628000000000098e+00
2.593428185548686538e-02 1.023603000000000041e+00
2.650195524800330604e-02 1.023454000000000086e+00
2.708205410122367304e-02 1.030555000000000110e+00
2.767485116257483238e-02 1.045539999999999914e+00
2.828062296556268368e-02 1.066260999999999903e+00
2.889965516642458918e-02 1.088705999999999952e+00
2.953223712425469966e-02 1.109307999999999961e+00
3.017866585007221089e-02 1.127145000000000064e+00
3.083924344304486698e-02 1.143961000000000006e+00
3.151428172097601316e-02 1.162115000000000009e+00
3.220409460893151193e-02 1.182808000000000082e+00
3.290900679366954434e-02 1.205534000000000106e+00
3.362935008254323843e-02 1.228445999999999927e+00
3.436545982617606604e-02 1.249427000000000065e+00
3.511768145762538679e-02 1.267854999999999954e+00
3.588636982920923035e-02 1.285274999999999945e+00
3.667188287528685281e-02 1.303517999999999954e+00
3.747459035401046190e-02 1.322216999999999976e+00
3.829486888200696326e-02 1.338716000000000017e+00
3.913310161841203338e-02 1.350079000000000029e+00
3.998968266187323539e-02 1.354657999999999918e+00
4.086501260624340881e-02 1.352532000000000068e+00
4.175950326235679244e-02 1.345852000000000048e+00
4.267357455111880221e-02 1.339185000000000070e+00
4.360765235805109941e-02 1.338165999999999967e+00
4.456217573218773653e-02 1.345928000000000013e+00
4.553759360593897382e-02 1.360964999999999980e+00
4.653436264861679494e-02 1.379712999999999967e+00
4.755294901990994583e-02 1.399342000000000086e+00
4.859383060501651364e-02 1.415542999999999996e+00
4.965749734357217948e-02 1.422541999999999973e+00
5.074444382592605690e-02 1.418128000000000055e+00
5.185518671652646766e-02 1.404160000000000075e+00
5.299023919793973553e-02 1.384451000000000098e+00
5.415013688613103116e-02 1.362713000000000063e+00
5.533542508618215922e-02 1.340918999999999972e+00
5.654665825930951795e-02 1.318788000000000071e+00
5.778440269534190765e-02 1.294367999999999963e+00
5.904923992113619846e-02 1.265714000000000006e+00
6.034176368113722960e-02 1.232615000000000016e+00
6.166257977365023624e-02 1.195727999999999902e+00
6.301230579922413588e-02 1.155670999999999893e+00
6.439157495481964699e-02 1.113609000000000071e+00
6.580103648476649802e-02 1.070281999999999956e+00
6.724135160227064090e-02 1.025870999999999977e+00
6.871319291929786632e-02 9.819029999999999703e-01
7.021724865648072689e-02 9.421119999999999495e-01
7.175422799231455373e-02 9.104780000000000095e-01
7.332484622679873165e-02 8.892919999999999714e-01
7.492985067379918929e-02 8.800630000000000397e-01
7.656998328017844413e-02 8.836000000000000520e-01
7.824601847091161577e-02 8.984360000000000124e-01
7.995873489609482687e-02 9.211749999999999661e-01
8.170894587125514252e-02 9.476879999999999749e-01
8.349746848200181870e-02 9.736590000000000522e-01
8.532513483931059017e-02 9.949869999999999548e-01
8.719280666320453066e-02 1.008577000000000057e+00
8.910136197668877545e-02 1.013112999999999930e+00
9.105169441740208758e-02 1.009455999999999909e+00
9.304472101470850909e-02 1.000917000000000057e+00
9.508136492722282784e-02 9.917040000000000299e-01
9.716259003207046441e-02 9.831820000000000004e-01
9.928937600698042876e-02 9.730760000000000520e-01
1.014627169666056788e-01 9.584040000000000337e-01
1.036836198025345573e-01 9.382430000000000492e-01
1.059531470945422049e-01 9.144609999999999683e-01
1.082723426204657002e-01 8.907129999999999770e-01
1.106423073612318730e-01 8.704899999999999860e-01
1.130641434367904014e-01 8.553629999999999844e-01
1.155389888050807612e-01 8.445759999999999934e-01
1.180680199308263012e-01 8.362060000000000048e-01
1.206523964642573915e-01 8.288330000000000419e-01
1.232933427266421494e-01 8.222580000000000444e-01
1.259921091142061633e-01 8.171779999999999600e-01
1.287499385219043613e-01 8.147280000000000078e-01
1.315681276210838024e-01 8.158879999999999466e-01
1.344480149355610776e-01 8.205350000000000144e-01
1.373909270603933253e-01 8.270359999999999934e-01
1.403982677661723133e-01 8.330490000000000395e-01
1.434714465996406174e-01 8.369450000000000500e-01
1.466118729226930095e-01 8.387989999999999613e-01
1.498210387691902012e-01 8.402979999999999894e-01
1.531004603883944215e-01 8.437240000000000295e-01
1.564516759885790365e-01 8.508250000000000535e-01
1.598762174374112610e-01 8.622469999999999857e-01
1.633757347823671657e-01 8.775020000000000042e-01
1.669518482487836186e-01 8.952630000000000310e-01
1.706062493069121222e-01 9.142850000000000144e-01
1.743406480276755433e-01 9.343930000000000291e-01
1.781567686922972404e-01 9.561119999999999619e-01
1.820564109071452219e-01 9.793089999999999851e-01
1.860414236112984399e-01 1.002650000000000041e+00
1.901136708649468487e-01 1.024324000000000012e+00
1.942750635716576912e-01 1.042834999999999956e+00
1.985275213739692568e-01 1.057295000000000096e+00
2.028730886819132551e-01 1.067987999999999937e+00
2.073137384534022021e-01 1.077113999999999905e+00
2.118516148918974384e-01 1.088635000000000019e+00
2.164888283105038391e-01 1.106826000000000088e+00
2.212275340673810209e-01 1.133955000000000046e+00
2.260699835805370650e-01 1.168077999999999950e+00
2.310183752015635139e-01 1.202938999999999981e+00
2.360751096568884100e-01 1.231127000000000082e+00
2.412425341466744866e-01 1.248432999999999904e+00
2.465230998307618715e-01 1.255481999999999987e+00
2.519191833183147544e-01 1.255543000000000076e+00
2.574334553825345373e-01 1.251406999999999936e+00
2.630683822583526066e-01 1.244102999999999959e+00
2.688266710467492326e-01 1.233746000000000009e+00
2.747110108843249798e-01 1.221173000000000064e+00
2.807241335168895180e-01 1.208698000000000050e+00
2.868688920234096495e-01 1.199148000000000103e+00
2.931481028187655768e-01 1.193951999999999902e+00
2.995647922697904919e-01 1.192067999999999905e+00
3.061219491886544297e-01 1.190881999999999996e+00
3.128225983045015424e-01 1.188474000000000030e+00
3.196699982673885665e-01 1.185405999999999960e+00
3.266672524899394969e-01 1.184430000000000094e+00
3.338175913859038335e-01 1.188091000000000008e+00
3.411245032800827026e-01 1.195967000000000002e+00
3.485912903071751723e-01 1.204131999999999980e+00
3.562216425308692980e-01 1.207902999999999949e+00
3.640189144227933826e-01 1.205724999999999936e+00
3.719868599361595973e-01 1.200418999999999903e+00
3.801292743636255911e-01 1.196825999999999945e+00
3.884498326752345854e-01 1.198487000000000080e+00
3.969526737144291051e-01 1.206007999999999969e+00
4.056414997215270768e-01 1.217629999999999990e+00
4.145204868460213854e-01 1.231195999999999957e+00
4.235940173275368759e-01 1.246377000000000068e+00
4.328659535344370757e-01 1.265579000000000010e+00
4.423408678727827614e-01 1.292593000000000103e+00
4.520233696082087693e-01 1.329887000000000041e+00
4.619176604055267865e-01 1.376576999999999940e+00
4.720285331807737017e-01 1.428344000000000058e+00
4.823605567984378673e-01 1.479228999999999905e+00
4.929189725005434508e-01 1.524254999999999916e+00
5.037085542305222985e-01 1.561209000000000069e+00
5.147340034826902722e-01 1.590306999999999915e+00
5.260010193899755659e-01 1.612232000000000109e+00
5.375147682182568332e-01 1.626541000000000015e+00
5.492803329078241870e-01 1.631682000000000077e+00
5.613033013614973088e-01 1.626343000000000094e+00
5.735898580135665448e-01 1.611425000000000107e+00
5.861448258358571417e-01 1.591301999999999994e+00
5.989749143316128732e-01 1.572870999999999908e+00
6.120861303119130570e-01 1.562345000000000095e+00
6.254839682204105245e-01 1.561431999999999931e+00
6.391749019026319312e-01 1.565512999999999932e+00
6.531657310067570110e-01 1.565801999999999916e+00
6.674631727194452191e-01 1.554686000000000012e+00
6.820728740300071591e-01 1.530515000000000070e+00
6.970030263871405118e-01 1.497778999999999971e+00
7.122593364734473020e-01 1.462901000000000007e+00
7.278502433567288765e-01 1.430171999999999999e+00
7.437819826252529687e-01 1.400806999999999913e+00
7.600626595656545526e-01 1.374176999999999982e+00
7.766996323880640540e-01 1.349372999999999934e+00
7.937005574159013976e-01 1.326268000000000002e+00
8.110740810733430006e-01 1.305770000000000097e+00
8.288272757110509703e-01 1.289360999999999979e+00
8.469695429752346350e-01 1.278507000000000060e+00
8.655086161382736787e-01 1.274429000000000034e+00
8.844540397880493732e-01 1.278196000000000110e+00
9.038134601323364326e-01 1.290766999999999998e+00
9.235972635660274488e-01 1.312807999999999975e+00
9.438138195107080852e-01 1.344441999999999915e+00
9.644726842046378312e-01 1.384962000000000026e+00
9.855838648094324972e-01 1.432525000000000048e+00
1.007156856623164121e+00 1.484215999999999980e+00
1.029202594413900052e+00 1.536936999999999998e+00
1.051730412046940843e+00 1.588710000000000067e+00
1.074752242739242414e+00 1.639164999999999983e+00
1.098277132661993116e+00 1.688789000000000096e+00
1.122316821060050707e+00 1.737848000000000059e+00
1.146883687643933891e+00 1.786119999999999930e+00
1.171988078537265165e+00 1.833676000000000084e+00
1.197640647923590596e+00 1.881839000000000039e+00
1.223856887071053556e+00 1.932908999999999988e+00
1.250645645814651763e+00 1.988226999999999967e+00
1.278020601692099190e+00 2.046114999999999906e+00
1.305994514823037633e+00 2.101506000000000096e+00
1.334582502555725414e+00 2.147831000000000046e+00
1.363795059788775355e+00 2.180130999999999819e+00
1.393646643680787944e+00 2.197384000000000004e+00
1.424152486855072564e+00 2.202761000000000191e+00
1.455324450032890349e+00 2.202325000000000088e+00
1.487179029585939727e+00 2.203374000000000166e+00
1.519733742648287977e+00 2.212823999999999902e+00
1.552997595959721311e+00 2.235158999999999896e+00
1.586991746055928854e+00 2.269922000000000217e+00
1.621728568046108876e+00 2.310481999999999925e+00
1.657226002538870313e+00 2.346178000000000097e+00
1.693503044918474698e+00 2.367726999999999915e+00
1.730570880722132499e+00 2.372472000000000136e+00
1.768449794594556090e+00 2.365451999999999888e+00
1.807161419272292235e+00 2.355518000000000001e+00
1.846718657952616915e+00 2.349540000000000184e+00
1.887141395956233536e+00 2.348660000000000192e+00
1.928446905999783967e+00 2.348396999999999846e+00
1.970660801980119947e+00 2.341683000000000181e+00
2.013794492272063863e+00 2.322791000000000050e+00
2.057875696076454375e+00 2.290388999999999786e+00
2.102921167794182811e+00 2.248644000000000087e+00
2.148947875120341244e+00 2.205670000000000019e+00
2.195987491655247315e+00 2.169737000000000027e+00
2.244054377925685628e+00 2.145445000000000046e+00
2.293172994677545429e+00 2.132125999999999966e+00
2.343369202504593130e+00 2.124858000000000136e+00
2.394664687077192156e+00 2.116973999999999911e+00
2.447081854888045971e+00 2.102669999999999817e+00
2.500643915808320461e+00 2.078971999999999820e+00
2.555381505681890708e+00 2.046616000000000213e+00
2.611313778074887182e+00 2.009187999999999974e+00
2.668474113132628389e+00 1.970434000000000019e+00
2.726883526623927079e+00 1.931386999999999965e+00
2.786570957242854973e+00 1.889977999999999936e+00
2.847566896465314912e+00 1.843873000000000095e+00
2.909895098281706893e+00 1.793624000000000107e+00
2.973597428432943612e+00 1.742973000000000106e+00
3.038682427299522981e+00 1.696612999999999927e+00
3.105194680180473732e+00 1.657694000000000001e+00
3.173162659491088000e+00 1.626457999999999959e+00
3.242626267866870915e+00 1.600327999999999973e+00
3.313595350363004233e+00 1.575196999999999958e+00
3.386134456627003964e+00 1.547307999999999906e+00
3.460243531939777739e+00 1.514869000000000021e+00
3.535992871438371044e+00 1.478596999999999939e+00
3.613382523514086397e+00 1.441097000000000072e+00
3.692475841976804229e+00 1.405663000000000107e+00
3.773300128292204736e+00 1.375115000000000087e+00
3.855897402281920350e+00 1.351042999999999994e+00
3.940296625529969621e+00 1.333544999999999980e+00
4.026542971266589888e+00 1.321501000000000037e+00
4.114684485993613805e+00 1.313314000000000092e+00
4.204754736656211023e+00 1.307725000000000026e+00
4.296787721499407020e+00 1.304391999999999996e+00
4.390837200929101236e+00 1.303921000000000108e+00
4.486960891648868355e+00 1.307323000000000013e+00
4.585157844058781684e+00 1.315315000000000012e+00
4.685530612914259763e+00 1.327941000000000038e+00
4.788102522851219511e+00 1.344521999999999995e+00
4.892894538551115780e+00 1.363747000000000043e+00
