# frequency(Hz) HVamp
2.000000000000000042e-02 1.505509999999999904e+00
2.043777802275861116e-02 1.497938999999999909e+00
2.088513892042544867e-02 1.494445999999999941e+00
2.134229185993890415e-02 1.493403999999999954e+00
2.180945121728470465e-02 1.492758999999999947e+00
2.228683671448790371e-02 1.490663000000000071e+00
2.277467095838639488e-02 1.486175000000000024e+00
2.327318386720582041e-02 1.479689000000000032e+00
2.378260869151607032e-02 1.472741999999999996e+00
2.430318396985316209e-02 1.467718000000000078e+00
2.483515418061077798e-02 1.467373000000000038e+00
2.537876860438217572e-02 1.473597999999999963e+00
2.593428185548686538e-02 1.486175000000000024e+00
2.650195524800330604e-02 1.502585000000000059e+00
2.708205410122367304e-02 1.519408000000000092e+00
2.767485116257483238e-02 1.534377000000000102e+00
2.828062296556268368e-02 1.547077000000000035e+00
2.889965516642458918e-02 1.557892999999999972e+00
2.953223712425469966e-02 1.566869000000000067e+00
3.017866585007221089e-02 1.573639999999999928e+00
3.083924344304486698e-02 1.577990999999999921e+00
3.151428172097601316e-02 1.580311000000000021e+00
3.220409460893151193e-02 1.581679999999999975e+00
3.290900679366954434e-02 1.583372999999999919e+00
3.362935008254323843e-02 1.585965000000000069e+00
3.436545982617606604e-02 1.588703999999999894e+00
3.511768145762538679e-02 1.589566999999999952e+00
3.588636982920923035e-02 1.586049999999999960e+00
3.667188287528685281e-02 1.576445000000000096e+00
3.747459035401046190e-02 1.560877000000000070e+00
3.829486888200696326e-02 1.541315999999999908e+00
3.913310161841203338e-02 1.520764000000000005e+00
3.998968266187323539e-02 1.502189999999999914e+00
4.086501260624340881e-02 1.487386000000000097e+00
4.175950326235679244e-02 1.476112000000000091e+00
4.267357455111880221e-02 1.466431999999999958e+00
4.360765235805109941e-02 1.456538000000000110e+00
4.456217573218773653e-02 1.446693999999999924e+00
4.553759360593897382e-02 1.439211000000000018e+00
4.653436264861679494e-02 1.436163000000000078e+00
4.755294901990994583e-02 1.436809000000000003e+00
4.859383060501651364e-02 1.437276999999999916e+00
4.965749734357217948e-02 1.433087000000000000e+00
5.074444382592605690e-02 1.422187000000000090e+00
5.185518671652646766e-02 1.406257000000000090e+00
5.299023919793973553e-02 1.389494999999999925e+00
5.415013688613103116e-02 1.376055000000000028e+00
5.533542508618215922e-02 1.368143000000000109e+00
5.654665825930951795e-02 1.365553000000000017e+00
5.778440269534190765e-02 1.366243000000000096e+00
5.904923992113619846e-02 1.367234999999999978e+00
6.034176368113722960e-02 1.365712999999999955e+00
6.166257977365023624e-02 1.360271999999999926e+00
6.301230579922413588e-02 1.351460000000000106e+00
6.439157495481964699e-02 1.340927999999999898e+00
6.580103648476649802e-02 1.330516000000000032e+00
6.724135160227064090e-02 1.321846000000000076e+00
6.871319291929786632e-02 1.315890999999999922e+00
7.021724865648072689e-02 1.312820000000000098e+00
7.175422799231455373e-02 1.312036999999999898e+00
7.332484622679873165e-02 1.311979999999999924e+00
7.492985067379918929e-02 1.310259999999999980e+00
7.656998328017844413e-02 1.304664000000000046e+00
7.824601847091161577e-02 1.294431000000000109e+00
7.995873489609482687e-02 1.280977000000000032e+00
8.170894587125514252e-02 1.267382999999999926e+00
8.349746848200181870e-02 1.256512000000000073e+00
8.532513483931059017e-02 1.249622999999999928e+00
8.719280666320453066e-02 1.246701999999999977e+00
8.910136197668877545e-02 1.247487999999999930e+00
9.105169441740208758e-02 1.251490999999999909e+00
9.304472101470850909e-02 1.257025999999999977e+00
9.508136492722282784e-02 1.260969000000000007e+00
9.716259003207046441e-02 1.259733999999999909e+00
9.928937600698042876e-02 1.250512999999999986e+00
1.014627169666056788e-01 1.232455000000000078e+00
1.036836198025345573e-01 1.207451000000000052e+00
1.059531470945422049e-01 1.179413999999999962e+00
1.082723426204657002e-01 1.152212999999999932e+00
1.106423073612318730e-01 1.128036000000000039e+00
1.130641434367904014e-01 1.107420999999999989e+00
1.155389888050807612e-01 1.090324999999999989e+00
1.180680199308263012e-01 1.076729999999999965e+00
1.206523964642573915e-01 1.066470000000000029e+00
1.232933427266421494e-01 1.059002999999999917e+00
1.259921091142061633e-01 1.053606000000000043e+00
1.287499385219043613e-01 1.049841000000000024e+00
1.315681276210838024e-01 1.047808000000000073e+00
1.344480149355610776e-01 1.047881999999999980e+00
1.373909270603933253e-01 1.050232000000000054e+00
1.403982677661723133e-01 1.054588000000000081e+00
1.434714465996406174e-01 1.060565999999999898e+00
1.466118729226930095e-01 1.068397999999999959e+00
1.498210387691902012e-01 1.079226999999999936e+00
1.531004603883944215e-01 1.094411999999999940e+00
1.564516759885790365e-01 1.114335999999999993e+00
1.598762174374112610e-01 1.137769000000000030e+00
1.633757347823671657e-01 1.162361999999999895e+00
1.669518482487836186e-01 1.185843999999999898e+00
1.706062493069121222e-01 1.206909000000000010e+00
1.743406480276755433e-01 1.225314999999999932e+00
1.781567686922972404e-01 1.241479999999999917e+00
1.820564109071452219e-01 1.255886000000000058e+00
1.860414236112984399e-01 1.268591000000000024e+00
1.901136708649468487e-01 1.279357999999999995e+00
1.942750635716576912e-01 1.288132999999999972e+00
1.985275213739692568e-01 1.295091999999999910e+00
2.028730886819132551e-01 1.300154999999999950e+00
2.073137384534022021e-01 1.302561999999999998e+00
2.118516148918974384e-01 1.301060000000000105e+00
2.164888283105038391e-01 1.294780000000000042e+00
2.212275340673810209e-01 1.284137000000000084e+00
2.260699835805370650e-01 1.270966000000000040e+00
2.310183752015635139e-01 1.257926000000000100e+00
2.360751096568884100e-01 1.247692999999999941e+00
2.412425341466744866e-01 1.242269000000000068e+00
2.465230998307618715e-01 1.242099999999999982e+00
2.519191833183147544e-01 1.245114999999999972e+00
2.574334553825345373e-01 1.246992000000000100e+00
2.630683822583526066e-01 1.243401999999999896e+00
2.688266710467492326e-01 1.232814000000000076e+00
2.747110108843249798e-01 1.217346999999999957e+00
2.807241335168895180e-01 1.201189000000000062e+00
2.868688920234096495e-01 1.188366000000000033e+00
2.931481028187655768e-01 1.181027999999999967e+00
2.995647922697904919e-01 1.178422000000000081e+00
3.061219491886544297e-01 1.177187999999999901e+00
3.128225983045015424e-01 1.173224000000000045e+00
3.196699982673885665e-01 1.164050999999999947e+00
3.266672524899394969e-01 1.149828000000000072e+00
3.338175913859038335e-01 1.132201999999999931e+00
3.411245032800827026e-01 1.112233999999999945e+00
3.485912903071751723e-01 1.089442000000000021e+00
3.562216425308692980e-01 1.062686999999999937e+00
3.640189144227933826e-01 1.031746000000000052e+00
3.719868599361595973e-01 9.980999999999999872e-01
3.801292743636255911e-01 9.645920000000000050e-01
3.884498326752345854e-01 9.345310000000000006e-01
3.969526737144291051e-01 9.107239999999999780e-01
4.056414997215270768e-01 8.944600000000000328e-01
4.145204868460213854e-01 8.849329999999999696e-01
4.235940173275368759e-01 8.798460000000000170e-01
4.328659535344370757e-01 8.769040000000000168e-01
4.423408678727827614e-01 8.748770000000000158e-01
4.520233696082087693e-01 8.733419999999999517e-01
4.619176604055267865e-01 8.715509999999999646e-01
4.720285331807737017e-01 8.677089999999999526e-01
4.823605567984378673e-01 8.595120000000000537e-01
4.929189725005434508e-01 8.455859999999999488e-01
5.037085542305222985e-01 8.265660000000000229e-01
5.147340034826902722e-01 8.049110000000000431e-01
5.260010193899755659e-01 7.837229999999999475e-01
5.375147682182568332e-01 7.654940000000000078e-01
5.492803329078241870e-01 7.515969999999999596e-01
5.613033013614973088e-01 7.425380000000000313e-01
5.735898580135665448e-01 7.383859999999999868e-01
5.861448258358571417e-01 7.389440000000000452e-01
5.989749143316128732e-01 7.436420000000000252e-01
6.120861303119130570e-01 7.513929999999999776e-01
6.254839682204105245e-01 7.605870000000000131e-01
6.391749019026319312e-01 7.694360000000000088e-01
6.531657310067570110e-01 7.767249999999999988e-01
6.674631727194452191e-01 7.823879999999999724e-01
6.820728740300071591e-01 7.872730000000000006e-01
6.970030263871405118e-01 7.923109999999999875e-01
7.122593364734473020e-01 7.977549999999999919e-01
7.278502433567288765e-01 8.028939999999999966e-01
7.437819826252529687e-01 8.061559999999999837e-01
7.600626595656545526e-01 8.055489999999999595e-01
7.766996323880640540e-01 7.994539999999999980e-01
7.937005574159013976e-01 7.874069999999999681e-01
8.110740810733430006e-01 7.702679999999999527e-01
8.288272757110509703e-01 7.497420000000000195e-01
8.469695429752346350e-01 7.279409999999999492e-01
8.655086161382736787e-01 7.074139999999999873e-01
8.844540397880493732e-01 6.911969999999999503e-01
9.038134601323364326e-01 6.821810000000000374e-01
9.235972635660274488e-01 6.819220000000000281e-01
9.438138195107080852e-01 6.898609999999999465e-01
9.644726842046378312e-01 7.037790000000000434e-01
9.855838648094324972e-01 7.212049999999999850e-01
1.007156856623164121e+00 7.406800000000000050e-01
1.029202594413900052e+00 7.619150000000000089e-01
1.051730412046940843e+00 7.848049999999999748e-01
1.074752242739242414e+00 8.084019999999999539e-01
1.098277132661993116e+00 8.311770000000000547e-01
1.122316821060050707e+00 8.526270000000000238e-01
1.146883687643933891e+00 8.747260000000000035e-01
1.171988078537265165e+00 9.016260000000000385e-01
1.197640647923590596e+00 9.374850000000000128e-01
1.223856887071053556e+00 9.837979999999999503e-01
1.250645645814651763e+00 1.037882999999999889e+00
1.278020601692099190e+00 1.093660000000000077e+00
1.305994514823037633e+00 1.144376999999999978e+00
1.334582502555725414e+00 1.185345000000000093e+00
1.363795059788775355e+00 1.215141000000000027e+00
1.393646643680787944e+00 1.235530999999999935e+00
1.424152486855072564e+00 1.250963999999999965e+00
1.455324450032890349e+00 1.267713000000000090e+00
1.487179029585939727e+00 1.292280000000000095e+00
1.519733742648287977e+00 1.329075000000000006e+00
1.552997595959721311e+00 1.378247999999999918e+00
1.586991746055928854e+00 1.434871000000000008e+00
1.621728568046108876e+00 1.490307000000000048e+00
1.657226002538870313e+00 1.535584999999999978e+00
1.693503044918474698e+00 1.565063000000000093e+00
1.730570880722132499e+00 1.578106000000000009e+00
1.768449794594556090e+00 1.578103999999999951e+00
1.807161419272292235e+00 1.570016999999999996e+00
1.846718657952616915e+00 1.558275000000000077e+00
1.887141395956233536e+00 1.546133999999999897e+00
1.928446905999783967e+00 1.536148999999999987e+00
1.970660801980119947e+00 1.530520000000000103e+00
2.013794492272063863e+00 1.530534000000000061e+00
2.057875696076454375e+00 1.535487000000000046e+00
2.102921167794182811e+00 1.542089999999999961e+00
2.148947875120341244e+00 1.545239000000000029e+00
2.195987491655247315e+00 1.540073000000000025e+00
2.244054377925685628e+00 1.524289000000000005e+00
2.293172994677545429e+00 1.499309999999999921e+00
2.343369202504593130e+00 1.469440999999999997e+00
2.394664687077192156e+00 1.439607000000000081e+00
2.447081854888045971e+00 1.413485000000000102e+00
2.500643915808320461e+00 1.392883000000000093e+00
2.555381505681890708e+00 1.377879999999999994e+00
2.611313778074887182e+00 1.367304000000000075e+00
2.668474113132628389e+00 1.359496999999999955e+00
2.726883526623927079e+00 1.353056999999999954e+00
2.786570957242854973e+00 1.347126999999999963e+00
2.847566896465314912e+00 1.341239999999999988e+00
2.909895098281706893e+00 1.335158999999999985e+00
2.973597428432943612e+00 1.328926000000000052e+00
3.038682427299522981e+00 1.322885000000000089e+00
3.105194680180473732e+00 1.317426999999999904e+00
3.173162659491088000e+00 1.312483999999999984e+00
3.242626267866870915e+00 1.307136000000000076e+00
3.313595350363004233e+00 1.299687999999999954e+00
3.386134456627003964e+00 1.288510999999999962e+00
3.460243531939777739e+00 1.273395000000000055e+00
3.535992871438371044e+00 1.256299000000000055e+00
3.613382523514086397e+00 1.240660000000000096e+00
3.692475841976804229e+00 1.229619999999999935e+00
3.773300128292204736e+00 1.224271000000000109e+00
3.855897402281920350e+00 1.223141999999999951e+00
3.940296625529969621e+00 1.223279999999999923e+00
4.026542971266589888e+00 1.222015000000000073e+00
4.114684485993613805e+00 1.218337999999999921e+00
4.204754736656211023e+00 1.213282999999999889e+00
4.296787721499407020e+00 1.209165999999999963e+00
4.390837200929101236e+00 1.208193999999999990e+00
4.486960891648868355e+00 1.211273000000000044e+00
4.585157844058781684e+00 1.217624999999999957e+00
4.685530612914259763e+00 1.225238000000000049e+00
4.788102522851219511e+00 1.231672000000000100e+00
4.892894538551115780e+00 1.234804000000000013e+00
