# frequency(Hz) HVamp
2.000000000000000042e-02 1.615612000000000048e+00
2.043777802275861116e-02 1.558008999999999977e+00
2.088513892042544867e-02 1.500135999999999914e+00
2.134229185993890415e-02 1.453427999999999942e+00
2.180945121728470465e-02 1.428223000000000020e+00
2.228683671448790371e-02 1.431464000000000070e+00
2.277467095838639488e-02 1.465391000000000110e+00
2.327318386720582041e-02 1.528261000000000092e+00
2.378260869151607032e-02 1.616610000000000102e+00
2.430318396985316209e-02 1.726491999999999916e+00
2.483515418061077798e-02 1.853150000000000075e+00
2.537876860438217572e-02 1.990520000000000067e+00
2.593428185548686538e-02 2.132271999999999945e+00
2.650195524800330604e-02 2.274589999999999890e+00
2.708205410122367304e-02 2.417572999999999972e+00
2.767485116257483238e-02 2.562605000000000022e+00
2.828062296556268368e-02 2.707901999999999809e+00
2.889965516642458918e-02 2.845817999999999959e+00
2.953223712425469966e-02 2.965281000000000056e+00
3.017866585007221089e-02 3.058307000000000109e+00
3.083924344304486698e-02 3.123486000000000207e+00
3.151428172097601316e-02 3.162529000000000146e+00
3.220409460893151193e-02 3.173611000000000182e+00
3.290900679366954434e-02 3.147212000000000121e+00
3.362935008254323843e-02 3.068185999999999858e+00
3.436545982617606604e-02 2.924694000000000127e+00
3.511768145762538679e-02 2.718827999999999800e+00
3.588636982920923035e-02 2.470136000000000109e+00
3.667188287528685281e-02 2.208565000000000111e+00
3.747459035401046190e-02 1.962436999999999987e+00
3.829486888200696326e-02 1.749757000000000007e+00
3.913310161841203338e-02 1.576521999999999979e+00
3.998968266187323539e-02 1.440523999999999916e+00
4.086501260624340881e-02 1.337016999999999900e+00
4.175950326235679244e-02 1.262242000000000086e+00
4.267357455111880221e-02 1.212938999999999989e+00
4.360765235805109941e-02 1.183980999999999950e+00
4.456217573218773653e-02 1.168063000000000073e+00
4.553759360593897382e-02 1.158501999999999921e+00
4.653436264861679494e-02 1.151985999999999954e+00
4.755294901990994583e-02 1.148584999999999967e+00
4.859383060501651364e-02 1.149688999999999961e+00
4.965749734357217948e-02 1.155837000000000003e+00
5.074444382592605690e-02 1.165912000000000059e+00
5.185518671652646766e-02 1.177038000000000029e+00
5.299023919793973553e-02 1.185102000000000100e+00
5.415013688613103116e-02 1.186245999999999912e+00
5.533542508618215922e-02 1.178550999999999904e+00
5.654665825930951795e-02 1.163046000000000024e+00
5.778440269534190765e-02 1.143567000000000000e+00
5.904923992113619846e-02 1.125450999999999979e+00
6.034176368113722960e-02 1.113404000000000060e+00
6.166257977365023624e-02 1.109034999999999993e+00
6.301230579922413588e-02 1.109741000000000088e+00
6.439157495481964699e-02 1.110133000000000036e+00
6.580103648476649802e-02 1.104913000000000034e+00
6.724135160227064090e-02 1.091545999999999905e+00
6.871319291929786632e-02 1.071258000000000044e+00
7.021724865648072689e-02 1.047897999999999996e+00
7.175422799231455373e-02 1.025587000000000026e+00
7.332484622679873165e-02 1.006696000000000035e+00
7.492985067379918929e-02 9.913389999999999702e-01
7.656998328017844413e-02 9.784699999999999509e-01
7.824601847091161577e-02 9.674080000000000457e-01
7.995873489609482687e-02 9.582070000000000309e-01
8.170894587125514252e-02 9.507210000000000383e-01
8.349746848200181870e-02 9.437100000000000488e-01
8.532513483931059017e-02 9.351819999999999578e-01
8.719280666320453066e-02 9.235900000000000221e-01
8.910136197668877545e-02 9.086959999999999482e-01
9.105169441740208758e-02 8.916359999999999841e-01
9.304472101470850909e-02 8.743410000000000348e-01
9.508136492722282784e-02 8.586009999999999476e-01
9.716259003207046441e-02 8.454230000000000356e-01
9.928937600698042876e-02 8.351619999999999600e-01
1.014627169666056788e-01 8.281110000000000415e-01
1.036836198025345573e-01 8.247949999999999449e-01
1.059531470945422049e-01 8.255599999999999605e-01
1.082723426204657002e-01 8.298590000000000133e-01
1.106423073612318730e-01 8.361020000000000119e-01
1.130641434367904014e-01 8.421079999999999677e-01
1.155389888050807612e-01 8.456759999999999833e-01
1.180680199308263012e-01 8.450539999999999718e-01
1.206523964642573915e-01 8.394139999999999935e-01
1.232933427266421494e-01 8.293230000000000324e-01
1.259921091142061633e-01 8.169100000000000250e-01
1.287499385219043613e-01 8.052850000000000286e-01
1.315681276210838024e-01 7.972129999999999495e-01
1.344480149355610776e-01 7.938530000000000308e-01
1.373909270603933253e-01 7.945280000000000120e-01
1.403982677661723133e-01 7.976090000000000124e-01
1.434714465996406174e-01 8.017309999999999715e-01
1.466118729226930095e-01 8.065050000000000274e-01
1.498210387691902012e-01 8.124879999999999880e-01
1.531004603883944215e-01 8.205930000000000168e-01
1.564516759885790365e-01 8.313260000000000094e-01
1.598762174374112610e-01 8.442169999999999952e-01
1.633757347823671657e-01 8.577099999999999724e-01
1.669518482487836186e-01 8.696049999999999613e-01
1.706062493069121222e-01 8.780189999999999939e-01
1.743406480276755433e-01 8.826009999999999689e-01
1.781567686922972404e-01 8.848960000000000159e-01
1.820564109071452219e-01 8.872459999999999791e-01
1.860414236112984399e-01 8.913010000000000099e-01
1.901136708649468487e-01 8.971200000000000285e-01
1.942750635716576912e-01 9.029939999999999634e-01
1.985275213739692568e-01 9.065010000000000012e-01
2.028730886819132551e-01 9.069350000000000467e-01
2.073137384534022021e-01 9.069279999999999564e-01
2.118516148918974384e-01 9.114130000000000287e-01
2.164888283105038391e-01 9.248809999999999532e-01
2.212275340673810209e-01 9.486099999999999532e-01
2.260699835805370650e-01 9.790919999999999623e-01
2.310183752015635139e-01 1.009012999999999938e+00
2.360751096568884100e-01 1.031112000000000029e+00
2.412425341466744866e-01 1.042386000000000035e+00
2.465230998307618715e-01 1.044958999999999971e+00
2.519191833183147544e-01 1.043457999999999997e+00
2.574334553825345373e-01 1.041981999999999964e+00
2.630683822583526066e-01 1.042791000000000023e+00
2.688266710467492326e-01 1.046794000000000002e+00
2.747110108843249798e-01 1.054648000000000030e+00
2.807241335168895180e-01 1.067140999999999895e+00
2.868688920234096495e-01 1.084518000000000093e+00
2.931481028187655768e-01 1.105610999999999899e+00
2.995647922697904919e-01 1.127925000000000066e+00
3.061219491886544297e-01 1.149100999999999928e+00
3.128225983045015424e-01 1.168719000000000063e+00
3.196699982673885665e-01 1.188800000000000079e+00
3.266672524899394969e-01 1.212412999999999963e+00
3.338175913859038335e-01 1.241548000000000096e+00
3.411245032800827026e-01 1.276254999999999917e+00
3.485912903071751723e-01 1.315393000000000034e+00
3.562216425308692980e-01 1.357685999999999948e+00
3.640189144227933826e-01 1.401917000000000080e+00
3.719868599361595973e-01 1.446487999999999996e+00
3.801292743636255911e-01 1.489481000000000055e+00
3.884498326752345854e-01 1.529379999999999962e+00
3.969526737144291051e-01 1.565568999999999988e+00
4.056414997215270768e-01 1.598308000000000062e+00
4.145204868460213854e-01 1.628551000000000082e+00
4.235940173275368759e-01 1.657478000000000007e+00
4.328659535344370757e-01 1.685583999999999971e+00
4.423408678727827614e-01 1.711818000000000062e+00
4.520233696082087693e-01 1.733438000000000034e+00
4.619176604055267865e-01 1.747109999999999941e+00
4.720285331807737017e-01 1.750469000000000053e+00
4.823605567984378673e-01 1.742680999999999925e+00
4.929189725005434508e-01 1.723975000000000035e+00
5.037085542305222985e-01 1.695383000000000084e+00
5.147340034826902722e-01 1.659334000000000087e+00
5.260010193899755659e-01 1.620038000000000089e+00
5.375147682182568332e-01 1.582567000000000057e+00
5.492803329078241870e-01 1.551088999999999940e+00
5.613033013614973088e-01 1.527727999999999975e+00
5.735898580135665448e-01 1.512516999999999889e+00
5.861448258358571417e-01 1.503729000000000093e+00
5.989749143316128732e-01 1.498367999999999922e+00
6.120861303119130570e-01 1.493360000000000021e+00
6.254839682204105245e-01 1.487368000000000023e+00
6.391749019026319312e-01 1.481978000000000018e+00
6.531657310067570110e-01 1.480574999999999974e+00
6.674631727194452191e-01 1.485246000000000066e+00
6.820728740300071591e-01 1.494509000000000087e+00
6.970030263871405118e-01 1.503937000000000079e+00
7.122593364734473020e-01 1.509128000000000025e+00
7.278502433567288765e-01 1.508604000000000056e+00
7.437819826252529687e-01 1.504477000000000064e+00
7.600626595656545526e-01 1.500590000000000090e+00
7.766996323880640540e-01 1.499754999999999949e+00
7.937005574159013976e-01 1.502224999999999921e+00
8.110740810733430006e-01 1.505962999999999941e+00
8.288272757110509703e-01 1.507482999999999906e+00
8.469695429752346350e-01 1.502448999999999923e+00
8.655086161382736787e-01 1.486823000000000006e+00
8.844540397880493732e-01 1.459243999999999986e+00
9.038134601323364326e-01 1.423362000000000016e+00
9.235972635660274488e-01 1.387625000000000108e+00
9.438138195107080852e-01 1.361836000000000046e+00
9.644726842046378312e-01 1.352748999999999979e+00
9.855838648094324972e-01 1.361456999999999917e+00
1.007156856623164121e+00 1.383661000000000030e+00
1.029202594413900052e+00 1.412298000000000053e+00
1.051730412046940843e+00 1.441043999999999992e+00
1.074752242739242414e+00 1.466638000000000108e+00
1.098277132661993116e+00 1.489066000000000001e+00
1.122316821060050707e+00 1.510407999999999973e+00
1.146883687643933891e+00 1.533428999999999931e+00
1.171988078537265165e+00 1.560286000000000062e+00
1.197640647923590596e+00 1.591568000000000094e+00
1.223856887071053556e+00 1.626130999999999993e+00
1.250645645814651763e+00 1.661912000000000056e+00
1.278020601692099190e+00 1.697222999999999926e+00
1.305994514823037633e+00 1.731540000000000079e+00
1.334582502555725414e+00 1.765180999999999889e+00
1.363795059788775355e+00 1.798256999999999994e+00
1.393646643680787944e+00 1.829881000000000091e+00
1.424152486855072564e+00 1.858254000000000072e+00
1.455324450032890349e+00 1.881324999999999914e+00
1.487179029585939727e+00 1.897369000000000083e+00
1.519733742648287977e+00 1.905434000000000072e+00
1.552997595959721311e+00 1.905820999999999987e+00
1.586991746055928854e+00 1.900414000000000048e+00
1.621728568046108876e+00 1.892412999999999901e+00
1.657226002538870313e+00 1.884916999999999954e+00
1.693503044918474698e+00 1.878821000000000074e+00
1.730570880722132499e+00 1.871799999999999908e+00
1.768449794594556090e+00 1.859690000000000065e+00
1.807161419272292235e+00 1.839628000000000041e+00
1.846718657952616915e+00 1.812545999999999990e+00
1.887141395956233536e+00 1.783079999999999998e+00
1.928446905999783967e+00 1.757185999999999915e+00
1.970660801980119947e+00 1.739290999999999920e+00
2.013794492272063863e+00 1.730682999999999971e+00
2.057875696076454375e+00 1.729859000000000036e+00
2.102921167794182811e+00 1.734113000000000016e+00
2.148947875120341244e+00 1.740892000000000106e+00
2.195987491655247315e+00 1.748118000000000061e+00
2.244054377925685628e+00 1.753794999999999993e+00
2.293172994677545429e+00 1.755668000000000006e+00
2.343369202504593130e+00 1.751611999999999947e+00
2.394664687077192156e+00 1.740906999999999982e+00
2.447081854888045971e+00 1.725321000000000105e+00
2.500643915808320461e+00 1.708663000000000043e+00
2.555381505681890708e+00 1.694855000000000000e+00
2.611313778074887182e+00 1.685680999999999985e+00
2.668474113132628389e+00 1.679654999999999898e+00
2.726883526623927079e+00 1.672643000000000102e+00
2.786570957242854973e+00 1.659909000000000079e+00
2.847566896465314912e+00 1.638684999999999947e+00
2.909895098281706893e+00 1.609804000000000013e+00
2.973597428432943612e+00 1.577210000000000001e+00
3.038682427299522981e+00 1.545843999999999996e+00
3.105194680180473732e+00 1.519498000000000015e+00
3.173162659491088000e+00 1.499760999999999900e+00
3.242626267866870915e+00 1.486283999999999939e+00
3.313595350363004233e+00 1.477721999999999980e+00
3.386134456627003964e+00 1.472760999999999987e+00
3.460243531939777739e+00 1.471030000000000060e+00
3.535992871438371044e+00 1.473432999999999993e+00
3.613382523514086397e+00 1.481205000000000105e+00
3.692475841976804229e+00 1.494370999999999894e+00
3.773300128292204736e+00 1.511038000000000103e+00
3.855897402281920350e+00 1.528060999999999892e+00
3.940296625529969621e+00 1.542488000000000081e+00
4.026542971266589888e+00 1.552667000000000019e+00
4.114684485993613805e+00 1.558415000000000106e+00
4.204754736656211023e+00 1.560508999999999924e+00
4.296787721499407020e+00 1.560000000000000053e+00
4.390837200929101236e+00 1.557728999999999919e+00
4.486960891648868355e+00 1.554280000000000106e+00
4.585157844058781684e+00 1.550453999999999999e+00
4.685530612914259763e+00 1.547676999999999969e+00
4.788102522851219511e+00 1.547779999999999934e+00
4.892894538551115780e+00 1.552229999999999999e+00
