# frequency(Hz) HVamp
2.000000000000000042e-02 2.140398999999999941e+00
2.043777802275861116e-02 2.101411999999999836e+00
2.088513892042544867e-02 2.065655000000000019e+00
2.134229185993890415e-02 2.028639000000000081e+00
2.180945121728470465e-02 1.986580999999999930e+00
2.228683671448790371e-02 1.939683000000000046e+00
2.277467095838639488e-02 1.892012999999999945e+00
2.327318386720582041e-02 1.848486000000000073e+00
2.378260869151607032e-02 1.812025999999999915e+00
2.430318396985316209e-02 1.783163000000000054e+00
2.483515418061077798e-02 1.760604999999999976e+00
2.537876860438217572e-02 1.741527999999999965e+00
2.593428185548686538e-02 1.721956000000000042e+00
2.650195524800330604e-02 1.698078999999999894e+00
2.708205410122367304e-02 1.668287000000000075e+00
2.767485116257483238e-02 1.634074999999999944e+00
2.828062296556268368e-02 1.598643000000000036e+00
2.889965516642458918e-02 1.564734999999999987e+00
2.953223712425469966e-02 1.533922000000000008e+00
3.017866585007221089e-02 1.507265000000000077e+00
3.083924344304486698e-02 1.486126999999999976e+00
3.151428172097601316e-02 1.472202000000000011e+00
3.220409460893151193e-02 1.466766000000000014e+00
3.290900679366954434e-02 1.469964999999999966e+00
3.362935008254323843e-02 1.480626999999999915e+00
3.436545982617606604e-02 1.496440999999999910e+00
3.511768145762538679e-02 1.514369999999999994e+00
3.588636982920923035e-02 1.531646999999999981e+00
3.667188287528685281e-02 1.547217999999999982e+00
3.747459035401046190e-02 1.562205999999999984e+00
3.829486888200696326e-02 1.578775999999999957e+00
3.913310161841203338e-02 1.598516000000000048e+00
3.998968266187323539e-02 1.621291000000000038e+00
4.086501260624340881e-02 1.644783000000000106e+00
4.175950326235679244e-02 1.664828999999999892e+00
4.267357455111880221e-02 1.676820999999999895e+00
4.360765235805109941e-02 1.677562999999999915e+00
4.456217573218773653e-02 1.666285999999999934e+00
4.553759360593897382e-02 1.644347999999999921e+00
4.653436264861679494e-02 1.614629000000000092e+00
4.755294901990994583e-02 1.581534999999999913e+00
4.859383060501651364e-02 1.550885999999999987e+00
4.965749734357217948e-02 1.528772000000000020e+00
5.074444382592605690e-02 1.519943999999999962e+00
5.185518671652646766e-02 1.526016999999999957e+00
5.299023919793973553e-02 1.544246000000000008e+00
5.415013688613103116e-02 1.568240999999999996e+00
5.533542508618215922e-02 1.591042999999999985e+00
5.654665825930951795e-02 1.608861000000000097e+00
5.778440269534190765e-02 1.622633999999999910e+00
5.904923992113619846e-02 1.636527000000000065e+00
6.034176368113722960e-02 1.654846999999999957e+00
6.166257977365023624e-02 1.679102000000000094e+00
6.301230579922413588e-02 1.706849000000000061e+00
6.439157495481964699e-02 1.732698999999999989e+00
6.580103648476649802e-02 1.750499000000000027e+00
6.724135160227064090e-02 1.755805999999999978e+00
6.871319291929786632e-02 1.747576000000000018e+00
7.021724865648072689e-02 1.728186000000000000e+00
7.175422799231455373e-02 1.701980999999999966e+00
7.332484622679873165e-02 1.673696000000000073e+00
7.492985067379918929e-02 1.648036000000000056e+00
7.656998328017844413e-02 1.630249000000000059e+00
7.824601847091161577e-02 1.626422999999999952e+00
7.995873489609482687e-02 1.642153999999999892e+00
8.170894587125514252e-02 1.679472999999999994e+00
8.349746848200181870e-02 1.733637000000000095e+00
8.532513483931059017e-02 1.792070999999999970e+00
8.719280666320453066e-02 1.837452000000000085e+00
8.910136197668877545e-02 1.854675999999999991e+00
9.105169441740208758e-02 1.838314000000000004e+00
9.304472101470850909e-02 1.795563999999999938e+00
9.508136492722282784e-02 1.741614999999999913e+00
9.716259003207046441e-02 1.690584000000000087e+00
9.928937600698042876e-02 1.649605999999999906e+00
1.014627169666056788e-01 1.619261000000000061e+00
1.036836198025345573e-01 1.597134999999999971e+00
1.059531470945422049e-01 1.580729999999999968e+00
1.082723426204657002e-01 1.568783000000000039e+00
1.106423073612318730e-01 1.560982000000000092e+00
1.130641434367904014e-01 1.556432000000000038e+00
1.155389888050807612e-01 1.552637999999999963e+00
1.180680199308263012e-01 1.546353000000000089e+00
1.206523964642573915e-01 1.535149000000000097e+00
1.232933427266421494e-01 1.518121999999999971e+00
1.259921091142061633e-01 1.495905999999999958e+00
1.287499385219043613e-01 1.470801000000000025e+00
1.315681276210838024e-01 1.446474999999999955e+00
1.344480149355610776e-01 1.426582999999999934e+00
1.373909270603933253e-01 1.413224999999999953e+00
1.403982677661723133e-01 1.406390999999999947e+00
1.434714465996406174e-01 1.404616000000000087e+00
1.466118729226930095e-01 1.406428999999999929e+00
1.498210387691902012e-01 1.411658000000000079e+00
1.531004603883944215e-01 1.421543000000000001e+00
1.564516759885790365e-01 1.437607000000000079e+00
1.598762174374112610e-01 1.460266000000000064e+00
1.633757347823671657e-01 1.488237000000000032e+00
1.669518482487836186e-01 1.518798000000000092e+00
1.706062493069121222e-01 1.548605000000000009e+00
1.743406480276755433e-01 1.574775999999999954e+00
1.781567686922972404e-01 1.596043000000000101e+00
1.820564109071452219e-01 1.613742999999999927e+00
1.860414236112984399e-01 1.632292000000000076e+00
1.901136708649468487e-01 1.658109000000000055e+00
1.942750635716576912e-01 1.696404999999999941e+00
1.985275213739692568e-01 1.747354999999999992e+00
2.028730886819132551e-01 1.804961999999999955e+00
2.073137384534022021e-01 1.860162000000000093e+00
2.118516148918974384e-01 1.905389999999999917e+00
2.164888283105038391e-01 1.936668000000000056e+00
2.212275340673810209e-01 1.953171999999999908e+00
2.260699835805370650e-01 1.957316000000000056e+00
2.310183752015635139e-01 1.955603999999999898e+00
2.360751096568884100e-01 1.957203999999999944e+00
2.412425341466744866e-01 1.969595999999999902e+00
2.465230998307618715e-01 1.994604000000000044e+00
2.519191833183147544e-01 2.027489999999999792e+00
2.574334553825345373e-01 2.059362000000000137e+00
2.630683822583526066e-01 2.082263000000000197e+00
2.688266710467492326e-01 2.094278000000000084e+00
2.747110108843249798e-01 2.100848000000000049e+00
2.807241335168895180e-01 2.111044000000000143e+00
2.868688920234096495e-01 2.131060000000000176e+00
2.931481028187655768e-01 2.158971000000000195e+00
2.995647922697904919e-01 2.184414999999999996e+00
3.061219491886544297e-01 2.194519999999999804e+00
3.128225983045015424e-01 2.182249999999999801e+00
3.196699982673885665e-01 2.149394000000000027e+00
3.266672524899394969e-01 2.102284000000000042e+00
3.338175913859038335e-01 2.046638000000000179e+00
3.411245032800827026e-01 1.986668000000000101e+00
3.485912903071751723e-01 1.927254000000000023e+00
3.562216425308692980e-01 1.874732000000000065e+00
3.640189144227933826e-01 1.834481999999999946e+00
3.719868599361595973e-01 1.808141999999999916e+00
3.801292743636255911e-01 1.793601999999999919e+00
3.884498326752345854e-01 1.787091999999999903e+00
3.969526737144291051e-01 1.784810000000000008e+00
4.056414997215270768e-01 1.783290999999999960e+00
4.145204868460213854e-01 1.779509000000000007e+00
4.235940173275368759e-01 1.771695999999999938e+00
4.328659535344370757e-01 1.760694999999999899e+00
4.423408678727827614e-01 1.750372999999999957e+00
4.520233696082087693e-01 1.745449999999999946e+00
4.619176604055267865e-01 1.747880000000000100e+00
4.720285331807737017e-01 1.755962000000000023e+00
4.823605567984378673e-01 1.767590999999999912e+00
4.929189725005434508e-01 1.783292000000000099e+00
5.037085542305222985e-01 1.805981000000000058e+00
5.147340034826902722e-01 1.838551999999999964e+00
5.260010193899755659e-01 1.880934000000000106e+00
5.375147682182568332e-01 1.928407999999999900e+00
5.492803329078241870e-01 1.972860000000000058e+00
5.613033013614973088e-01 2.006615000000000038e+00
5.735898580135665448e-01 2.026602000000000015e+00
5.861448258358571417e-01 2.036350000000000104e+00
5.989749143316128732e-01 2.044470000000000010e+00
6.120861303119130570e-01 2.060210000000000097e+00
6.254839682204105245e-01 2.088616000000000028e+00
6.391749019026319312e-01 2.127960999999999991e+00
6.531657310067570110e-01 2.170760000000000023e+00
6.674631727194452191e-01 2.207733999999999863e+00
6.820728740300071591e-01 2.232580000000000009e+00
6.970030263871405118e-01 2.244688000000000017e+00
7.122593364734473020e-01 2.248257000000000172e+00
7.278502433567288765e-01 2.248924000000000145e+00
7.437819826252529687e-01 2.250620000000000065e+00
7.600626595656545526e-01 2.254468999999999834e+00
7.766996323880640540e-01 2.259437000000000140e+00
7.937005574159013976e-01 2.263482000000000216e+00
8.110740810733430006e-01 2.264664999999999928e+00
8.288272757110509703e-01 2.262029000000000067e+00
8.469695429752346350e-01 2.255781999999999954e+00
8.655086161382736787e-01 2.246621000000000201e+00
8.844540397880493732e-01 2.234812999999999938e+00
9.038134601323364326e-01 2.219796999999999798e+00
9.235972635660274488e-01 2.200674999999999937e+00
9.438138195107080852e-01 2.177046999999999954e+00
9.644726842046378312e-01 2.149258000000000113e+00
9.855838648094324972e-01 2.118006999999999973e+00
1.007156856623164121e+00 2.083801999999999932e+00
1.029202594413900052e+00 2.046847000000000083e+00
1.051730412046940843e+00 2.007521000000000111e+00
1.074752242739242414e+00 1.967092999999999980e+00
1.098277132661993116e+00 1.928239000000000036e+00
1.122316821060050707e+00 1.894673000000000052e+00
1.146883687643933891e+00 1.869623999999999953e+00
1.171988078537265165e+00 1.854179000000000022e+00
1.197640647923590596e+00 1.846905999999999937e+00
1.223856887071053556e+00 1.845016999999999907e+00
1.250645645814651763e+00 1.846028999999999920e+00
1.278020601692099190e+00 1.848532999999999982e+00
1.305994514823037633e+00 1.851676000000000100e+00
1.334582502555725414e+00 1.854030000000000067e+00
1.363795059788775355e+00 1.853010000000000046e+00
1.393646643680787944e+00 1.845836999999999950e+00
1.424152486855072564e+00 1.831822000000000061e+00
1.455324450032890349e+00 1.813994000000000106e+00
1.487179029585939727e+00 1.798235000000000028e+00
1.519733742648287977e+00 1.790243999999999946e+00
1.552997595959721311e+00 1.792761999999999967e+00
1.586991746055928854e+00 1.804864000000000024e+00
1.621728568046108876e+00 1.823129000000000000e+00
1.657226002538870313e+00 1.843482000000000065e+00
1.693503044918474698e+00 1.862584999999999935e+00
1.730570880722132499e+00 1.878357999999999972e+00
1.768449794594556090e+00 1.889801999999999982e+00
1.807161419272292235e+00 1.896527999999999992e+00
1.846718657952616915e+00 1.898465000000000069e+00
1.887141395956233536e+00 1.896128999999999953e+00
1.928446905999783967e+00 1.890938999999999925e+00
1.970660801980119947e+00 1.884940999999999978e+00
2.013794492272063863e+00 1.880219000000000085e+00
2.057875696076454375e+00 1.878271000000000024e+00
2.102921167794182811e+00 1.879391000000000034e+00
2.148947875120341244e+00 1.882411999999999974e+00
2.195987491655247315e+00 1.884911000000000003e+00
2.244054377925685628e+00 1.883628999999999998e+00
2.293172994677545429e+00 1.875104000000000104e+00
2.343369202504593130e+00 1.856872000000000078e+00
2.394664687077192156e+00 1.829055000000000097e+00
2.447081854888045971e+00 1.794912999999999981e+00
2.500643915808320461e+00 1.759408000000000083e+00
2.555381505681890708e+00 1.726717000000000057e+00
2.611313778074887182e+00 1.698329999999999895e+00
2.668474113132628389e+00 1.672584000000000071e+00
2.726883526623927079e+00 1.645812999999999970e+00
2.786570957242854973e+00 1.614586999999999994e+00
2.847566896465314912e+00 1.577833999999999959e+00
2.909895098281706893e+00 1.537611000000000061e+00
2.973597428432943612e+00 1.498107999999999995e+00
3.038682427299522981e+00 1.463681000000000010e+00
3.105194680180473732e+00 1.437284999999999924e+00
3.173162659491088000e+00 1.420039000000000051e+00
3.242626267866870915e+00 1.411620000000000097e+00
3.313595350363004233e+00 1.410941999999999918e+00
3.386134456627003964e+00 1.416668999999999956e+00
3.460243531939777739e+00 1.427408999999999928e+00
3.535992871438371044e+00 1.441694000000000031e+00
3.613382523514086397e+00 1.457804000000000100e+00
3.692475841976804229e+00 1.473321000000000103e+00
3.773300128292204736e+00 1.485006999999999966e+00
3.855897402281920350e+00 1.489781000000000022e+00
3.940296625529969621e+00 1.486221999999999932e+00
4.026542971266589888e+00 1.475370999999999988e+00
4.114684485993613805e+00 1.460345999999999922e+00
4.204754736656211023e+00 1.445016000000000078e+00
4.296787721499407020e+00 1.432530999999999999e+00
4.390837200929101236e+00 1.424509999999999943e+00
4.486960891648868355e+00 1.421097999999999972e+00
4.585157844058781684e+00 1.421702000000000021e+00
4.685530612914259763e+00 1.425953999999999944e+00
4.788102522851219511e+00 1.434280999999999917e+00
4.892894538551115780e+00 1.447654999999999914e+00
