# frequency(Hz) HVamp
2.000000000000000042e-02 1.874039000000000010e+00
2.043777802275861116e-02 1.948253000000000013e+00
2.088513892042544867e-02 2.012229000000000045e+00
2.134229185993890415e-02 2.054876999999999843e+00
2.180945121728470465e-02 2.070571000000000161e+00
2.228683671448790371e-02 2.058902999999999928e+00
2.277467095838639488e-02 2.022364000000000051e+00
2.327318386720582041e-02 1.964842999999999895e+00
2.378260869151607032e-02 1.892654999999999976e+00
2.430318396985316209e-02 1.815283999999999898e+00
2.483515418061077798e-02 1.743133000000000044e+00
2.537876860438217572e-02 1.683831000000000078e+00
2.593428185548686538e-02 1.639934000000000003e+00
2.650195524800330604e-02 1.608972000000000069e+00
2.708205410122367304e-02 1.585817000000000032e+00
2.767485116257483238e-02 1.566340000000000066e+00
2.828062296556268368e-02 1.549922999999999940e+00
2.889965516642458918e-02 1.538912999999999975e+00
2.953223712425469966e-02 1.536359999999999948e+00
3.017866585007221089e-02 1.544192000000000009e+00
3.083924344304486698e-02 1.561889000000000083e+00
3.151428172097601316e-02 1.585569999999999924e+00
3.220409460893151193e-02 1.609329000000000010e+00
3.290900679366954434e-02 1.628729000000000093e+00
3.362935008254323843e-02 1.642419000000000073e+00
3.436545982617606604e-02 1.650314999999999976e+00
3.511768145762538679e-02 1.651928000000000063e+00
3.588636982920923035e-02 1.646957000000000004e+00
3.667188287528685281e-02 1.636705999999999994e+00
3.747459035401046190e-02 1.624792000000000014e+00
3.829486888200696326e-02 1.616176000000000057e+00
3.913310161841203338e-02 1.615210000000000035e+00
3.998968266187323539e-02 1.624349999999999961e+00
4.086501260624340881e-02 1.643764999999999921e+00
4.175950326235679244e-02 1.671554999999999902e+00
4.267357455111880221e-02 1.704484000000000110e+00
4.360765235805109941e-02 1.738636000000000070e+00
4.456217573218773653e-02 1.769125000000000059e+00
4.553759360593897382e-02 1.789336999999999955e+00
4.653436264861679494e-02 1.791921000000000097e+00
4.755294901990994583e-02 1.772891999999999912e+00
4.859383060501651364e-02 1.735579999999999901e+00
4.965749734357217948e-02 1.689157999999999937e+00
5.074444382592605690e-02 1.642705000000000082e+00
5.185518671652646766e-02 1.601490000000000080e+00
5.299023919793973553e-02 1.567506000000000066e+00
5.415013688613103116e-02 1.541258999999999935e+00
5.533542508618215922e-02 1.522928000000000059e+00
5.654665825930951795e-02 1.512693000000000065e+00
5.778440269534190765e-02 1.510753000000000013e+00
5.904923992113619846e-02 1.517338999999999993e+00
6.034176368113722960e-02 1.532073999999999936e+00
6.166257977365023624e-02 1.552629999999999955e+00
6.301230579922413588e-02 1.574181000000000052e+00
6.439157495481964699e-02 1.590472000000000108e+00
6.580103648476649802e-02 1.596376999999999935e+00
6.724135160227064090e-02 1.590003999999999973e+00
6.871319291929786632e-02 1.572241999999999917e+00
7.021724865648072689e-02 1.545236000000000054e+00
7.175422799231455373e-02 1.512221999999999955e+00
7.332484622679873165e-02 1.477935999999999916e+00
7.492985067379918929e-02 1.447842000000000073e+00
7.656998328017844413e-02 1.426236999999999977e+00
7.824601847091161577e-02 1.414401000000000019e+00
7.995873489609482687e-02 1.410058999999999951e+00
8.170894587125514252e-02 1.408727000000000062e+00
8.349746848200181870e-02 1.405977000000000032e+00
8.532513483931059017e-02 1.399149999999999894e+00
8.719280666320453066e-02 1.387942999999999927e+00
8.910136197668877545e-02 1.373785999999999952e+00
9.105169441740208758e-02 1.358460000000000001e+00
9.304472101470850909e-02 1.342969999999999997e+00
9.508136492722282784e-02 1.327231999999999967e+00
9.716259003207046441e-02 1.310308999999999946e+00
9.928937600698042876e-02 1.291029999999999900e+00
1.014627169666056788e-01 1.268696999999999964e+00
1.036836198025345573e-01 1.243282999999999916e+00
1.059531470945422049e-01 1.215163999999999911e+00
1.082723426204657002e-01 1.184959000000000096e+00
1.106423073612318730e-01 1.153518000000000043e+00
1.130641434367904014e-01 1.121712999999999960e+00
1.155389888050807612e-01 1.090152000000000010e+00
1.180680199308263012e-01 1.059177999999999953e+00
1.206523964642573915e-01 1.029198000000000057e+00
1.232933427266421494e-01 1.000963999999999965e+00
1.259921091142061633e-01 9.754920000000000258e-01
1.287499385219043613e-01 9.534540000000000237e-01
1.315681276210838024e-01 9.344719999999999693e-01
1.344480149355610776e-01 9.169850000000000501e-01
1.373909270603933253e-01 8.990449999999999831e-01
1.403982677661723133e-01 8.796580000000000510e-01
1.434714465996406174e-01 8.597820000000000462e-01
1.466118729226930095e-01 8.420640000000000347e-01
1.498210387691902012e-01 8.292100000000000026e-01
1.531004603883944215e-01 8.222220000000000084e-01
1.564516759885790365e-01 8.198419999999999597e-01
1.598762174374112610e-01 8.192310000000000425e-01
1.633757347823671657e-01 8.171859999999999680e-01
1.669518482487836186e-01 8.115040000000000031e-01
1.706062493069121222e-01 8.020899999999999697e-01
1.743406480276755433e-01 7.909840000000000204e-01
1.781567686922972404e-01 7.810240000000000515e-01
1.820564109071452219e-01 7.743020000000000458e-01
1.860414236112984399e-01 7.714900000000000091e-01
1.901136708649468487e-01 7.719819999999999460e-01
1.942750635716576912e-01 7.745530000000000470e-01
1.985275213739692568e-01 7.781130000000000546e-01
2.028730886819132551e-01 7.818810000000000482e-01
2.073137384534022021e-01 7.849129999999999718e-01
2.118516148918974384e-01 7.858990000000000142e-01
2.164888283105038391e-01 7.838140000000000107e-01
2.212275340673810209e-01 7.789350000000000440e-01
2.260699835805370650e-01 7.730660000000000309e-01
2.310183752015635139e-01 7.684260000000000534e-01
2.360751096568884100e-01 7.660559999999999592e-01
2.412425341466744866e-01 7.650510000000000366e-01
2.465230998307618715e-01 7.631409999999999583e-01
2.519191833183147544e-01 7.581259999999999666e-01
2.574334553825345373e-01 7.490350000000000064e-01
2.630683822583526066e-01 7.362560000000000215e-01
2.688266710467492326e-01 7.210050000000000070e-01
2.747110108843249798e-01 7.048539999999999806e-01
2.807241335168895180e-01 6.893719999999999848e-01
2.868688920234096495e-01 6.757339999999999458e-01
2.931481028187655768e-01 6.644660000000000011e-01
2.995647922697904919e-01 6.555159999999999876e-01
3.061219491886544297e-01 6.485189999999999566e-01
3.128225983045015424e-01 6.430150000000000032e-01
3.196699982673885665e-01 6.385340000000000460e-01
3.266672524899394969e-01 6.345899999999999874e-01
3.338175913859038335e-01 6.306439999999999824e-01
3.411245032800827026e-01 6.261299999999999644e-01
3.485912903071751723e-01 6.206450000000000022e-01
3.562216425308692980e-01 6.142119999999999802e-01
3.640189144227933826e-01 6.073129999999999917e-01
3.719868599361595973e-01 6.006139999999999812e-01
3.801292743636255911e-01 5.945669999999999566e-01
3.884498326752345854e-01 5.892910000000000093e-01
3.969526737144291051e-01 5.848400000000000265e-01
4.056414997215270768e-01 5.814350000000000351e-01
4.145204868460213854e-01 5.793049999999999589e-01
4.235940173275368759e-01 5.782829999999999915e-01
4.328659535344370757e-01 5.775930000000000231e-01
4.423408678727827614e-01 5.761100000000000110e-01
4.520233696082087693e-01 5.729990000000000361e-01
4.619176604055267865e-01 5.682660000000000489e-01
4.720285331807737017e-01 5.627299999999999525e-01
4.823605567984378673e-01 5.574299999999999811e-01
4.929189725005434508e-01 5.531089999999999618e-01
5.037085542305222985e-01 5.502139999999999809e-01
5.147340034826902722e-01 5.491589999999999527e-01
5.260010193899755659e-01 5.502759999999999874e-01
5.375147682182568332e-01 5.534409999999999608e-01
5.492803329078241870e-01 5.578180000000000360e-01
5.613033013614973088e-01 5.621570000000000178e-01
5.735898580135665448e-01 5.655839999999999756e-01
5.861448258358571417e-01 5.682840000000000114e-01
5.989749143316128732e-01 5.713390000000000413e-01
6.120861303119130570e-01 5.757759999999999545e-01
6.254839682204105245e-01 5.817299999999999693e-01
6.391749019026319312e-01 5.885190000000000143e-01
6.531657310067570110e-01 5.955040000000000333e-01
6.674631727194452191e-01 6.029219999999999580e-01
6.820728740300071591e-01 6.120790000000000397e-01
6.970030263871405118e-01 6.248700000000000365e-01
7.122593364734473020e-01 6.429110000000000102e-01
7.278502433567288765e-01 6.667450000000000321e-01
7.437819826252529687e-01 6.956590000000000273e-01
7.600626595656545526e-01 7.283460000000000489e-01
7.766996323880640540e-01 7.639839999999999964e-01
7.937005574159013976e-01 8.027570000000000539e-01
8.110740810733430006e-01 8.452110000000000456e-01
8.288272757110509703e-01 8.909070000000000045e-01
8.469695429752346350e-01 9.375580000000000025e-01
8.655086161382736787e-01 9.816780000000000506e-01
8.844540397880493732e-01 1.020718000000000014e+00
9.038134601323364326e-01 1.054932999999999899e+00
9.235972635660274488e-01 1.086794999999999956e+00
9.438138195107080852e-01 1.118637000000000103e+00
9.644726842046378312e-01 1.151378000000000013e+00
9.855838648094324972e-01 1.185446999999999917e+00
1.007156856623164121e+00 1.222108999999999890e+00
1.029202594413900052e+00 1.263074000000000030e+00
1.051730412046940843e+00 1.308532999999999946e+00
1.074752242739242414e+00 1.355939999999999923e+00
1.098277132661993116e+00 1.401203999999999894e+00
1.122316821060050707e+00 1.441577000000000108e+00
1.146883687643933891e+00 1.477989999999999915e+00
1.171988078537265165e+00 1.515060000000000073e+00
1.197640647923590596e+00 1.558726000000000056e+00
1.223856887071053556e+00 1.612873999999999919e+00
1.250645645814651763e+00 1.677154000000000034e+00
1.278020601692099190e+00 1.747594000000000092e+00
1.305994514823037633e+00 1.819533000000000067e+00
1.334582502555725414e+00 1.890603999999999951e+00
1.363795059788775355e+00 1.961605000000000043e+00
1.393646643680787944e+00 2.035017999999999994e+00
1.424152486855072564e+00 2.112382999999999900e+00
1.455324450032890349e+00 2.192088000000000036e+00
1.487179029585939727e+00 2.268784000000000134e+00
1.519733742648287977e+00 2.334919000000000189e+00
1.552997595959721311e+00 2.383777999999999953e+00
1.586991746055928854e+00 2.412335000000000118e+00
1.621728568046108876e+00 2.422142000000000017e+00
1.657226002538870313e+00 2.418060999999999794e+00
1.693503044918474698e+00 2.406861000000000139e+00
1.730570880722132499e+00 2.396814000000000000e+00
1.768449794594556090e+00 2.396929000000000087e+00
1.807161419272292235e+00 2.414629000000000136e+00
1.846718657952616915e+00 2.453030000000000044e+00
1.887141395956233536e+00 2.510533000000000126e+00
1.928446905999783967e+00 2.583324000000000176e+00
1.970660801980119947e+00 2.668277999999999928e+00
2.013794492272063863e+00 2.763670999999999989e+00
2.057875696076454375e+00 2.867369000000000057e+00
2.102921167794182811e+00 2.974006999999999845e+00
2.148947875120341244e+00 3.073895999999999962e+00
2.195987491655247315e+00 3.155959000000000181e+00
2.244054377925685628e+00 3.212965000000000071e+00
2.293172994677545429e+00 3.243701000000000167e+00
2.343369202504593130e+00 3.249566999999999872e+00
2.394664687077192156e+00 3.229764999999999997e+00
2.447081854888045971e+00 3.180927000000000060e+00
2.500643915808320461e+00 3.101837999999999873e+00
2.555381505681890708e+00 2.998149999999999871e+00
2.611313778074887182e+00 2.882230999999999987e+00
2.668474113132628389e+00 2.768175999999999970e+00
2.726883526623927079e+00 2.665967999999999893e+00
2.786570957242854973e+00 2.578535000000000021e+00
2.847566896465314912e+00 2.502495000000000136e+00
2.909895098281706893e+00 2.431283000000000083e+00
2.973597428432943612e+00 2.358683000000000085e+00
3.038682427299522981e+00 2.281057000000000112e+00
3.105194680180473732e+00 2.197797000000000001e+00
3.173162659491088000e+00 2.110689999999999955e+00
3.242626267866870915e+00 2.023181000000000118e+00
3.313595350363004233e+00 1.939934999999999965e+00
3.386134456627003964e+00 1.866187999999999958e+00
3.460243531939777739e+00 1.806556999999999968e+00
3.535992871438371044e+00 1.763554000000000066e+00
3.613382523514086397e+00 1.736445000000000016e+00
3.692475841976804229e+00 1.721143000000000089e+00
3.773300128292204736e+00 1.711340000000000083e+00
3.855897402281920350e+00 1.700344000000000078e+00
3.940296625529969621e+00 1.683086000000000082e+00
4.026542971266589888e+00 1.657717000000000107e+00
4.114684485993613805e+00 1.626044999999999963e+00
4.204754736656211023e+00 1.592392999999999947e+00
4.296787721499407020e+00 1.561522000000000077e+00
4.390837200929101236e+00 1.536818000000000017e+00
4.486960891648868355e+00 1.519417000000000018e+00
4.585157844058781684e+00 1.508294999999999941e+00
4.685530612914259763e+00 1.500890999999999975e+00
4.788102522851219511e+00 1.493945000000000078e+00
4.892894538551115780e+00 1.484467999999999899e+00
