# frequency(Hz) HVamp
2.000000000000000042e-02 7.590000000000000080e-01
2.043777802275861116e-02 7.445819999999999661e-01
2.088513892042544867e-02 7.322760000000000380e-01
2.134229185993890415e-02 7.192359999999999864e-01
2.180945121728470465e-02 7.024850000000000261e-01
2.228683671448790371e-02 6.805080000000000018e-01
2.277467095838639488e-02 6.537469999999999670e-01
2.327318386720582041e-02 6.238369999999999749e-01
2.378260869151607032e-02 5.923950000000000049e-01
2.430318396985316209e-02 5.597710000000000186e-01
2.483515418061077798e-02 5.241500000000000048e-01
2.537876860438217572e-02 4.821239999999999970e-01
2.593428185548686538e-02 4.313910000000000244e-01
2.650195524800330604e-02 3.743489999999999873e-01
2.708205410122367304e-02 3.188960000000000128e-01
2.767485116257483238e-02 2.740429999999999811e-01
2.828062296556268368e-02 2.444220000000000004e-01
2.889965516642458918e-02 2.294329999999999981e-01
2.953223712425469966e-02 2.262490000000000057e-01
3.017866585007221089e-02 2.326179999999999914e-01
3.083924344304486698e-02 2.474129999999999940e-01
3.151428172097601316e-02 2.694460000000000188e-01
3.220409460893151193e-02 2.967739999999999823e-01
3.290900679366954434e-02 3.279869999999999730e-01
3.362935008254323843e-02 3.641070000000000140e-01
3.436545982617606604e-02 4.088530000000000220e-01
3.511768145762538679e-02 4.665989999999999860e-01
3.588636982920923035e-02 5.386279999999999957e-01
3.667188287528685281e-02 6.198879999999999946e-01
3.747459035401046190e-02 6.997719999999999496e-01
3.829486888200696326e-02 7.674689999999999568e-01
3.913310161841203338e-02 8.177849999999999842e-01
3.998968266187323539e-02 8.525719999999999965e-01
4.086501260624340881e-02 8.769139999999999713e-01
4.175950326235679244e-02 8.939970000000000416e-01
4.267357455111880221e-02 9.032590000000000341e-01
4.360765235805109941e-02 9.030869999999999731e-01
4.456217573218773653e-02 8.943999999999999728e-01
4.553759360593897382e-02 8.802020000000000399e-01
4.653436264861679494e-02 8.622450000000000392e-01
4.755294901990994583e-02 8.393119999999999470e-01
4.859383060501651364e-02 8.081390000000000517e-01
4.965749734357217948e-02 7.663149999999999684e-01
5.074444382592605690e-02 7.154819999999999514e-01
5.185518671652646766e-02 6.615140000000000464e-01
5.299023919793973553e-02 6.116239999999999455e-01
5.415013688613103116e-02 5.712819999999999565e-01
5.533542508618215922e-02 5.428520000000000012e-01
5.654665825930951795e-02 5.257410000000000139e-01
5.778440269534190765e-02 5.169519999999999671e-01
5.904923992113619846e-02 5.116460000000000452e-01
6.034176368113722960e-02 5.041529999999999623e-01
6.166257977365023624e-02 4.897369999999999779e-01
6.301230579922413588e-02 4.663490000000000135e-01
6.439157495481964699e-02 4.353009999999999935e-01
6.580103648476649802e-02 4.004309999999999814e-01
6.724135160227064090e-02 3.665229999999999877e-01
6.871319291929786632e-02 3.378459999999999797e-01
7.021724865648072689e-02 3.168079999999999785e-01
7.175422799231455373e-02 3.028739999999999766e-01
7.332484622679873165e-02 2.930050000000000154e-01
7.492985067379918929e-02 2.837640000000000162e-01
7.656998328017844413e-02 2.729570000000000052e-01
7.824601847091161577e-02 2.598469999999999946e-01
7.995873489609482687e-02 2.447979999999999878e-01
8.170894587125514252e-02 2.286680000000000101e-01
8.349746848200181870e-02 2.120750000000000135e-01
8.532513483931059017e-02 1.953630000000000089e-01
8.719280666320453066e-02 1.793099999999999972e-01
8.910136197668877545e-02 1.655399999999999927e-01
9.105169441740208758e-02 1.560950000000000115e-01
9.304472101470850909e-02 1.522189999999999932e-01
9.508136492722282784e-02 1.528579999999999939e-01
9.716259003207046441e-02 1.541200000000000070e-01
9.928937600698042876e-02 1.508210000000000106e-01
1.014627169666056788e-01 1.394330000000000014e-01
1.036836198025345573e-01 1.203779999999999989e-01
1.059531470945422049e-01 9.795099999999999640e-02
1.082723426204657002e-01 7.806899999999999951e-02
1.106423073612318730e-01 6.566900000000000515e-02
1.130641434367904014e-01 6.324699999999999767e-02
1.155389888050807612e-01 7.056999999999999384e-02
1.180680199308263012e-01 8.511100000000000609e-02
1.206523964642573915e-01 1.031070000000000042e-01
1.232933427266421494e-01 1.207249999999999990e-01
1.259921091142061633e-01 1.346420000000000117e-01
1.287499385219043613e-01 1.420839999999999881e-01
1.315681276210838024e-01 1.410790000000000100e-01
1.344480149355610776e-01 1.312490000000000046e-01
1.373909270603933253e-01 1.146589999999999970e-01
1.403982677661723133e-01 9.585499999999999576e-02
1.434714465996406174e-01 8.076700000000000546e-02
1.466118729226930095e-01 7.483399999999999774e-02
1.498210387691902012e-01 8.084099999999999620e-02
1.531004603883944215e-01 9.731900000000000273e-02
1.564516759885790365e-01 1.187340000000000062e-01
1.598762174374112610e-01 1.379610000000000003e-01
1.633757347823671657e-01 1.498690000000000022e-01
1.669518482487836186e-01 1.538470000000000115e-01
1.706062493069121222e-01 1.534669999999999923e-01
1.743406480276755433e-01 1.535380000000000078e-01
1.781567686922972404e-01 1.569339999999999902e-01
1.820564109071452219e-01 1.635629999999999862e-01
1.860414236112984399e-01 1.713639999999999886e-01
1.901136708649468487e-01 1.776689999999999936e-01
1.942750635716576912e-01 1.800249999999999906e-01
1.985275213739692568e-01 1.766590000000000105e-01
2.028730886819132551e-01 1.669289999999999941e-01
2.073137384534022021e-01 1.519330000000000125e-01
2.118516148918974384e-01 1.349909999999999999e-01
2.164888283105038391e-01 1.210070000000000034e-01
2.212275340673810209e-01 1.145029999999999937e-01
2.260699835805370650e-01 1.176699999999999968e-01
2.310183752015635139e-01 1.296370000000000022e-01
2.360751096568884100e-01 1.469050000000000078e-01
2.412425341466744866e-01 1.643940000000000123e-01
2.465230998307618715e-01 1.769969999999999877e-01
2.519191833183147544e-01 1.815150000000000097e-01
2.574334553825345373e-01 1.780569999999999931e-01
2.630683822583526066e-01 1.697740000000000082e-01
2.688266710467492326e-01 1.610389999999999877e-01
2.747110108843249798e-01 1.554820000000000091e-01
2.807241335168895180e-01 1.549790000000000056e-01
2.868688920234096495e-01 1.594750000000000056e-01
2.931481028187655768e-01 1.673129999999999895e-01
2.995647922697904919e-01 1.758949999999999958e-01
3.061219491886544297e-01 1.824109999999999898e-01
3.128225983045015424e-01 1.846800000000000108e-01
3.196699982673885665e-01 1.819850000000000079e-01
3.266672524899394969e-01 1.754010000000000014e-01
3.338175913859038335e-01 1.671870000000000023e-01
3.411245032800827026e-01 1.595669999999999866e-01
3.485912903071751723e-01 1.535960000000000103e-01
3.562216425308692980e-01 1.488800000000000123e-01
3.640189144227933826e-01 1.443899999999999906e-01
3.719868599361595973e-01 1.395609999999999906e-01
3.801292743636255911e-01 1.347399999999999987e-01
3.884498326752345854e-01 1.308040000000000036e-01
3.969526737144291051e-01 1.283390000000000086e-01
4.056414997215270768e-01 1.270729999999999915e-01
4.145204868460213854e-01 1.259629999999999916e-01
4.235940173275368759e-01 1.238220000000000015e-01
4.328659535344370757e-01 1.200849999999999973e-01
4.423408678727827614e-01 1.151500000000000024e-01
4.520233696082087693e-01 1.099959999999999966e-01
4.619176604055267865e-01 1.053950000000000026e-01
4.720285331807737017e-01 1.014680000000000026e-01
4.823605567984378673e-01 9.792099999999999416e-02
4.929189725005434508e-01 9.450699999999999379e-02
5.037085542305222985e-01 9.124899999999999678e-02
5.147340034826902722e-01 8.848100000000000409e-02
5.260010193899755659e-01 8.679199999999999415e-02
5.375147682182568332e-01 8.685800000000000465e-02
5.492803329078241870e-01 8.926900000000000113e-02
5.613033013614973088e-01 9.445699999999999930e-02
5.735898580135665448e-01 1.027460000000000040e-01
5.861448258358571417e-01 1.144479999999999942e-01
5.989749143316128732e-01 1.297629999999999895e-01
6.120861303119130570e-01 1.483649999999999969e-01
6.254839682204105245e-01 1.690220000000000056e-01
6.391749019026319312e-01 1.896639999999999993e-01
6.531657310067570110e-01 2.080339999999999967e-01
6.674631727194452191e-01 2.226259999999999906e-01
6.820728740300071591e-01 2.332819999999999894e-01
6.970030263871405118e-01 2.408349999999999935e-01
7.122593364734473020e-01 2.463079999999999992e-01
7.278502433567288765e-01 2.506669999999999732e-01
7.437819826252529687e-01 2.550089999999999857e-01
7.600626595656545526e-01 2.602340000000000209e-01
7.766996323880640540e-01 2.662490000000000134e-01
7.937005574159013976e-01 2.717550000000000243e-01
8.110740810733430006e-01 2.752080000000000082e-01
8.288272757110509703e-01 2.760929999999999773e-01
8.469695429752346350e-01 2.753970000000000029e-01
8.655086161382736787e-01 2.749770000000000270e-01
8.844540397880493732e-01 2.763929999999999998e-01
9.038134601323364326e-01 2.799320000000000142e-01
9.235972635660274488e-01 2.845019999999999771e-01
9.438138195107080852e-01 2.884519999999999862e-01
9.644726842046378312e-01 2.907379999999999964e-01
9.855838648094324972e-01 2.915570000000000106e-01
1.007156856623164121e+00 2.921619999999999773e-01
1.029202594413900052e+00 2.942150000000000043e-01
1.051730412046940843e+00 2.991579999999999795e-01
1.074752242739242414e+00 3.079239999999999755e-01
1.098277132661993116e+00 3.208699999999999886e-01
1.122316821060050707e+00 3.376589999999999869e-01
1.146883687643933891e+00 3.573169999999999957e-01
1.171988078537265165e+00 3.787960000000000216e-01
1.197640647923590596e+00 4.017519999999999980e-01
1.223856887071053556e+00 4.269020000000000037e-01
1.250645645814651763e+00 4.556569999999999787e-01
1.278020601692099190e+00 4.890410000000000035e-01
1.305994514823037633e+00 5.261550000000000393e-01
1.334582502555725414e+00 5.631739999999999524e-01
1.363795059788775355e+00 5.944610000000000172e-01
1.393646643680787944e+00 6.158919999999999950e-01
1.424152486855072564e+00 6.278559999999999697e-01
1.455324450032890349e+00 6.352160000000000029e-01
1.487179029585939727e+00 6.445319999999999938e-01
1.519733742648287977e+00 6.609199999999999520e-01
1.552997595959721311e+00 6.862399999999999611e-01
1.586991746055928854e+00 7.188660000000000050e-01
1.621728568046108876e+00 7.548559999999999715e-01
1.657226002538870313e+00 7.901369999999999783e-01
1.693503044918474698e+00 8.225729999999999986e-01
1.730570880722132499e+00 8.526110000000000078e-01
1.768449794594556090e+00 8.824180000000000357e-01
1.807161419272292235e+00 9.145210000000000283e-01
1.846718657952616915e+00 9.509940000000000060e-01
1.887141395956233536e+00 9.934509999999999730e-01
1.928446905999783967e+00 1.043188000000000004e+00
1.970660801980119947e+00 1.100708000000000020e+00
2.013794492272063863e+00 1.164773999999999976e+00
2.057875696076454375e+00 1.232034999999999991e+00
2.102921167794182811e+00 1.297651000000000110e+00
2.148947875120341244e+00 1.356417999999999902e+00
2.195987491655247315e+00 1.404190999999999967e+00
2.244054377925685628e+00 1.439168000000000003e+00
2.293172994677545429e+00 1.462050999999999989e+00
2.343369202504593130e+00 1.474809000000000037e+00
2.394664687077192156e+00 1.479211000000000054e+00
2.447081854888045971e+00 1.476569000000000020e+00
2.500643915808320461e+00 1.468717000000000050e+00
2.555381505681890708e+00 1.458644000000000052e+00
2.611313778074887182e+00 1.449880000000000058e+00
2.668474113132628389e+00 1.445006999999999930e+00
2.726883526623927079e+00 1.444193000000000060e+00
2.786570957242854973e+00 1.444973999999999981e+00
2.847566896465314912e+00 1.443626000000000076e+00
2.909895098281706893e+00 1.436928999999999901e+00
2.973597428432943612e+00 1.423202999999999996e+00
3.038682427299522981e+00 1.402377999999999902e+00
3.105194680180473732e+00 1.375369000000000064e+00
3.173162659491088000e+00 1.343318000000000012e+00
3.242626267866870915e+00 1.307299999999999907e+00
3.313595350363004233e+00 1.268777000000000044e+00
3.386134456627003964e+00 1.230080000000000062e+00
3.460243531939777739e+00 1.194024999999999892e+00
3.535992871438371044e+00 1.162806999999999924e+00
3.613382523514086397e+00 1.137108999999999925e+00
3.692475841976804229e+00 1.115831999999999935e+00
3.773300128292204736e+00 1.096589000000000036e+00
3.855897402281920350e+00 1.076913999999999927e+00
3.940296625529969621e+00 1.055568000000000062e+00
4.026542971266589888e+00 1.033106999999999998e+00
4.114684485993613805e+00 1.011416000000000093e+00
4.204754736656211023e+00 9.927489999999999926e-01
4.296787721499407020e+00 9.788029999999999786e-01
4.390837200929101236e+00 9.701269999999999616e-01
4.486960891648868355e+00 9.659600000000000408e-01
4.585157844058781684e+00 9.644439999999999680e-01
4.685530612914259763e+00 9.630440000000000111e-01
4.788102522851219511e+00 9.590079999999999716e-01
4.892894538551115780e+00 9.499130000000000074e-01
