# frequency(Hz) HVamp
2.000000000000000042e-02 1.913272000000000084e+00
2.043777802275861116e-02 1.980649000000000104e+00
2.088513892042544867e-02 2.036217999999999861e+00
2.134229185993890415e-02 2.068991000000000025e+00
2.180945121728470465e-02 2.075769000000000197e+00
2.228683671448790371e-02 2.059346000000000121e+00
2.277467095838639488e-02 2.023712999999999873e+00
2.327318386720582041e-02 1.971902999999999961e+00
2.378260869151607032e-02 1.908257000000000092e+00
2.430318396985316209e-02 1.840403000000000011e+00
2.483515418061077798e-02 1.777560999999999947e+00
2.537876860438217572e-02 1.727081000000000088e+00
2.593428185548686538e-02 1.691626999999999992e+00
2.650195524800330604e-02 1.668174000000000046e+00
2.708205410122367304e-02 1.649836000000000080e+00
2.767485116257483238e-02 1.630260999999999960e+00
2.828062296556268368e-02 1.607509000000000077e+00
2.889965516642458918e-02 1.584057000000000048e+00
2.953223712425469966e-02 1.564108999999999972e+00
3.017866585007221089e-02 1.551420999999999939e+00
3.083924344304486698e-02 1.548030000000000017e+00
3.151428172097601316e-02 1.553075999999999901e+00
3.220409460893151193e-02 1.563128999999999991e+00
3.290900679366954434e-02 1.574672000000000072e+00
3.362935008254323843e-02 1.585593000000000030e+00
3.436545982617606604e-02 1.594047999999999909e+00
3.511768145762538679e-02 1.597515999999999936e+00
3.588636982920923035e-02 1.593852999999999964e+00
3.667188287528685281e-02 1.583013000000000003e+00
3.747459035401046190e-02 1.567893999999999899e+00
3.829486888200696326e-02 1.553257000000000110e+00
3.913310161841203338e-02 1.543706999999999940e+00
3.998968266187323539e-02 1.542485000000000106e+00
4.086501260624340881e-02 1.551096000000000030e+00
4.175950326235679244e-02 1.569479999999999986e+00
4.267357455111880221e-02 1.596548999999999996e+00
4.360765235805109941e-02 1.630036000000000040e+00
4.456217573218773653e-02 1.665176999999999907e+00
4.553759360593897382e-02 1.693972000000000033e+00
4.653436264861679494e-02 1.707108999999999988e+00
4.755294901990994583e-02 1.698614000000000068e+00
4.859383060501651364e-02 1.669934000000000029e+00
4.965749734357217948e-02 1.629331000000000085e+00
5.074444382592605690e-02 1.586894000000000027e+00
5.185518671652646766e-02 1.550205000000000055e+00
5.299023919793973553e-02 1.523454000000000086e+00
5.415013688613103116e-02 1.507722000000000007e+00
5.533542508618215922e-02 1.501258999999999899e+00
5.654665825930951795e-02 1.500715999999999939e+00
5.778440269534190765e-02 1.503349000000000046e+00
5.904923992113619846e-02 1.508910999999999891e+00
6.034176368113722960e-02 1.519041000000000086e+00
6.166257977365023624e-02 1.533835000000000059e+00
6.301230579922413588e-02 1.549638999999999989e+00
6.439157495481964699e-02 1.560508000000000006e+00
6.580103648476649802e-02 1.561504000000000003e+00
6.724135160227064090e-02 1.550505999999999940e+00
6.871319291929786632e-02 1.526971999999999996e+00
7.021724865648072689e-02 1.490712000000000037e+00
7.175422799231455373e-02 1.443257000000000012e+00
7.332484622679873165e-02 1.389556999999999931e+00
7.492985067379918929e-02 1.337094000000000005e+00
7.656998328017844413e-02 1.292877000000000054e+00
7.824601847091161577e-02 1.260632999999999893e+00
7.995873489609482687e-02 1.239808000000000021e+00
8.170894587125514252e-02 1.226669999999999927e+00
8.349746848200181870e-02 1.216679000000000066e+00
8.532513483931059017e-02 1.206445999999999907e+00
8.719280666320453066e-02 1.194484000000000101e+00
8.910136197668877545e-02 1.180870000000000086e+00
9.105169441740208758e-02 1.166415999999999897e+00
9.304472101470850909e-02 1.151988999999999930e+00
9.508136492722282784e-02 1.138187999999999978e+00
9.716259003207046441e-02 1.124973999999999918e+00
9.928937600698042876e-02 1.111749000000000098e+00
1.014627169666056788e-01 1.097876999999999992e+00
1.036836198025345573e-01 1.083007999999999971e+00
1.059531470945422049e-01 1.067010999999999932e+00
1.082723426204657002e-01 1.049765000000000059e+00
1.106423073612318730e-01 1.031112999999999946e+00
1.130641434367904014e-01 1.010971000000000064e+00
1.155389888050807612e-01 9.895340000000000247e-01
1.180680199308263012e-01 9.674690000000000234e-01
1.206523964642573915e-01 9.459220000000000406e-01
1.232933427266421494e-01 9.262930000000000330e-01
1.259921091142061633e-01 9.098450000000000149e-01
1.287499385219043613e-01 8.970890000000000253e-01
1.315681276210838024e-01 8.871670000000000389e-01
1.344480149355610776e-01 8.778639999999999777e-01
1.373909270603933253e-01 8.665880000000000249e-01
1.403982677661723133e-01 8.520090000000000163e-01
1.434714465996406174e-01 8.355460000000000109e-01
1.466118729226930095e-01 8.213110000000000133e-01
1.498210387691902012e-01 8.138729999999999576e-01
1.531004603883944215e-01 8.154940000000000522e-01
1.564516759885790365e-01 8.249900000000000011e-01
1.598762174374112610e-01 8.384650000000000158e-01
1.633757347823671657e-01 8.509269999999999889e-01
1.669518482487836186e-01 8.582929999999999726e-01
1.706062493069121222e-01 8.593750000000000000e-01
1.743406480276755433e-01 8.565519999999999801e-01
1.781567686922972404e-01 8.540689999999999671e-01
1.820564109071452219e-01 8.553359999999999852e-01
1.860414236112984399e-01 8.614009999999999723e-01
1.901136708649468487e-01 8.712910000000000377e-01
1.942750635716576912e-01 8.834969999999999768e-01
1.985275213739692568e-01 8.971839999999999815e-01
2.028730886819132551e-01 9.119460000000000344e-01
2.073137384534022021e-01 9.265919999999999712e-01
2.118516148918974384e-01 9.387760000000000549e-01
2.164888283105038391e-01 9.461840000000000250e-01
2.212275340673810209e-01 9.482329999999999925e-01
2.260699835805370650e-01 9.465050000000000407e-01
2.310183752015635139e-01 9.432319999999999593e-01
2.360751096568884100e-01 9.393270000000000231e-01
2.412425341466744866e-01 9.338049999999999962e-01
2.465230998307618715e-01 9.246349999999999847e-01
2.519191833183147544e-01 9.101529999999999898e-01
2.574334553825345373e-01 8.900820000000000398e-01
2.630683822583526066e-01 8.655559999999999921e-01
2.688266710467492326e-01 8.385930000000000328e-01
2.747110108843249798e-01 8.116360000000000241e-01
2.807241335168895180e-01 7.870540000000000314e-01
2.868688920234096495e-01 7.664309999999999734e-01
2.931481028187655768e-01 7.501659999999999995e-01
2.995647922697904919e-01 7.378029999999999866e-01
3.061219491886544297e-01 7.286449999999999871e-01
3.128225983045015424e-01 7.220370000000000399e-01
3.196699982673885665e-01 7.171370000000000244e-01
3.266672524899394969e-01 7.126949999999999674e-01
3.338175913859038335e-01 7.071950000000000180e-01
3.411245032800827026e-01 6.994780000000000442e-01
3.485912903071751723e-01 6.895250000000000545e-01
3.562216425308692980e-01 6.787029999999999452e-01
3.640189144227933826e-01 6.690589999999999593e-01
3.719868599361595973e-01 6.621609999999999996e-01
3.801292743636255911e-01 6.582459999999999978e-01
3.884498326752345854e-01 6.562850000000000072e-01
3.969526737144291051e-01 6.548929999999999474e-01
4.056414997215270768e-01 6.532390000000000141e-01
4.145204868460213854e-01 6.511400000000000521e-01
4.235940173275368759e-01 6.485220000000000429e-01
4.328659535344370757e-01 6.449529999999999985e-01
4.423408678727827614e-01 6.397110000000000296e-01
4.520233696082087693e-01 6.323450000000000459e-01
4.619176604055267865e-01 6.231999999999999762e-01
4.720285331807737017e-01 6.134030000000000316e-01
4.823605567984378673e-01 6.042669999999999986e-01
4.929189725005434508e-01 5.966970000000000329e-01
5.037085542305222985e-01 5.910879999999999468e-01
5.147340034826902722e-01 5.875449999999999839e-01
5.260010193899755659e-01 5.858839999999999604e-01
5.375147682182568332e-01 5.854530000000000012e-01
5.492803329078241870e-01 5.851460000000000550e-01
5.613033013614973088e-01 5.838950000000000529e-01
5.735898580135665448e-01 5.813110000000000221e-01
5.861448258358571417e-01 5.778929999999999900e-01
5.989749143316128732e-01 5.745710000000000539e-01
6.120861303119130570e-01 5.719109999999999472e-01
6.254839682204105245e-01 5.697780000000000067e-01
6.391749019026319312e-01 5.678900000000000059e-01
6.531657310067570110e-01 5.667299999999999560e-01
6.674631727194452191e-01 5.678339999999999499e-01
6.820728740300071591e-01 5.732500000000000373e-01
6.970030263871405118e-01 5.848839999999999595e-01
7.122593364734473020e-01 6.041210000000000191e-01
7.278502433567288765e-01 6.314530000000000420e-01
7.437819826252529687e-01 6.661850000000000271e-01
7.600626595656545526e-01 7.067710000000000381e-01
7.766996323880640540e-01 7.517979999999999663e-01
7.937005574159013976e-01 8.006159999999999943e-01
8.110740810733430006e-01 8.528790000000000537e-01
8.288272757110509703e-01 9.074950000000000516e-01
8.469695429752346350e-01 9.620790000000000175e-01
8.655086161382736787e-01 1.013768000000000002e+00
8.844540397880493732e-01 1.061177000000000037e+00
9.038134601323364326e-01 1.105618999999999907e+00
9.235972635660274488e-01 1.149742000000000042e+00
9.438138195107080852e-01 1.194995000000000029e+00
9.644726842046378312e-01 1.241200000000000081e+00
9.855838648094324972e-01 1.288621000000000016e+00
1.007156856623164121e+00 1.339612000000000025e+00
1.029202594413900052e+00 1.397291999999999978e+00
1.051730412046940843e+00 1.462007000000000057e+00
1.074752242739242414e+00 1.529322000000000070e+00
1.098277132661993116e+00 1.592055999999999916e+00
1.122316821060050707e+00 1.645002000000000075e+00
1.146883687643933891e+00 1.688606000000000051e+00
1.171988078537265165e+00 1.728930000000000078e+00
1.197640647923590596e+00 1.774173000000000000e+00
1.223856887071053556e+00 1.829906999999999950e+00
1.250645645814651763e+00 1.896026999999999907e+00
1.278020601692099190e+00 1.967387999999999915e+00
1.305994514823037633e+00 2.037450000000000205e+00
1.334582502555725414e+00 2.102094000000000129e+00
1.363795059788775355e+00 2.160949000000000009e+00
1.393646643680787944e+00 2.216098999999999819e+00
1.424152486855072564e+00 2.269730000000000025e+00
1.455324450032890349e+00 2.322334999999999816e+00
1.487179029585939727e+00 2.372202000000000144e+00
1.519733742648287977e+00 2.416233000000000075e+00
1.552997595959721311e+00 2.451484999999999914e+00
1.586991746055928854e+00 2.476434999999999942e+00
1.621728568046108876e+00 2.491157999999999983e+00
1.657226002538870313e+00 2.496947000000000028e+00
1.693503044918474698e+00 2.496795999999999793e+00
1.730570880722132499e+00 2.496518000000000015e+00
1.768449794594556090e+00 2.504372000000000043e+00
1.807161419272292235e+00 2.528103999999999907e+00
1.846718657952616915e+00 2.571178000000000186e+00
1.887141395956233536e+00 2.631391999999999953e+00
1.928446905999783967e+00 2.702881999999999785e+00
1.970660801980119947e+00 2.779386000000000134e+00
2.013794492272063863e+00 2.856282000000000210e+00
2.057875696076454375e+00 2.930312999999999946e+00
2.102921167794182811e+00 2.997570000000000068e+00
2.148947875120341244e+00 3.051987000000000005e+00
2.195987491655247315e+00 3.086978999999999917e+00
2.244054377925685628e+00 3.099361000000000033e+00
2.293172994677545429e+00 3.090933999999999848e+00
2.343369202504593130e+00 3.065274000000000054e+00
2.394664687077192156e+00 3.023296000000000205e+00
2.447081854888045971e+00 2.962753000000000192e+00
2.500643915808320461e+00 2.882073999999999803e+00
2.555381505681890708e+00 2.784196999999999811e+00
2.611313778074887182e+00 2.676973999999999965e+00
2.668474113132628389e+00 2.570278000000000063e+00
2.726883526623927079e+00 2.472166000000000086e+00
2.786570957242854973e+00 2.386360999999999954e+00
2.847566896465314912e+00 2.311897000000000091e+00
2.909895098281706893e+00 2.244717000000000073e+00
2.973597428432943612e+00 2.180044999999999789e+00
3.038682427299522981e+00 2.114182000000000006e+00
3.105194680180473732e+00 2.045237000000000194e+00
3.173162659491088000e+00 1.973149000000000042e+00
3.242626267866870915e+00 1.899661000000000044e+00
3.313595350363004233e+00 1.828222999999999931e+00
3.386134456627003964e+00 1.763343000000000105e+00
3.460243531939777739e+00 1.709430000000000005e+00
3.535992871438371044e+00 1.669408999999999921e+00
3.613382523514086397e+00 1.643569999999999975e+00
3.692475841976804229e+00 1.629240000000000022e+00
3.773300128292204736e+00 1.621528999999999998e+00
3.855897402281920350e+00 1.614738999999999924e+00
3.940296625529969621e+00 1.604027000000000092e+00
4.026542971266589888e+00 1.586929000000000034e+00
4.114684485993613805e+00 1.564011000000000040e+00
4.204754736656211023e+00 1.538221999999999978e+00
4.296787721499407020e+00 1.513312999999999908e+00
4.390837200929101236e+00 1.492226000000000052e+00
4.486960891648868355e+00 1.476161999999999974e+00
4.585157844058781684e+00 1.464507000000000003e+00
4.685530612914259763e+00 1.455290999999999890e+00
4.788102522851219511e+00 1.445899999999999963e+00
4.892894538551115780e+00 1.433891000000000027e+00
