# frequency(Hz) HVamp
2.000000000000000042e-02 1.553015999999999952e+00
2.043777802275861116e-02 1.555304999999999938e+00
2.088513892042544867e-02 1.552156000000000091e+00
2.134229185993890415e-02 1.547020999999999979e+00
2.180945121728470465e-02 1.546705999999999914e+00
2.228683671448790371e-02 1.556117999999999890e+00
2.277467095838639488e-02 1.575107000000000035e+00
2.327318386720582041e-02 1.599305999999999894e+00
2.378260869151607032e-02 1.623321000000000014e+00
2.430318396985316209e-02 1.643262000000000000e+00
2.483515418061077798e-02 1.657934999999999937e+00
2.537876860438217572e-02 1.668164999999999898e+00
2.593428185548686538e-02 1.674727999999999994e+00
2.650195524800330604e-02 1.676981999999999973e+00
2.708205410122367304e-02 1.673588999999999993e+00
2.767485116257483238e-02 1.664114000000000093e+00
2.828062296556268368e-02 1.649391999999999969e+00
2.889965516642458918e-02 1.631005000000000038e+00
2.953223712425469966e-02 1.610737000000000085e+00
3.017866585007221089e-02 1.589817999999999953e+00
3.083924344304486698e-02 1.568497000000000030e+00
3.151428172097601316e-02 1.546480000000000077e+00
3.220409460893151193e-02 1.523733000000000004e+00
3.290900679366954434e-02 1.500885000000000025e+00
3.362935008254323843e-02 1.479125999999999941e+00
3.436545982617606604e-02 1.460220999999999991e+00
3.511768145762538679e-02 1.446741000000000055e+00
3.588636982920923035e-02 1.441545999999999994e+00
3.667188287528685281e-02 1.445756999999999959e+00
3.747459035401046190e-02 1.456723999999999908e+00
3.829486888200696326e-02 1.468418999999999919e+00
3.913310161841203338e-02 1.473802999999999974e+00
3.998968266187323539e-02 1.466593000000000035e+00
4.086501260624340881e-02 1.442229999999999901e+00
4.175950326235679244e-02 1.398925999999999892e+00
4.267357455111880221e-02 1.338732999999999951e+00
4.360765235805109941e-02 1.268121000000000054e+00
4.456217573218773653e-02 1.196563999999999961e+00
4.553759360593897382e-02 1.131860000000000088e+00
4.653436264861679494e-02 1.075823999999999891e+00
4.755294901990994583e-02 1.026238999999999901e+00
4.859383060501651364e-02 9.823319999999999830e-01
4.965749734357217948e-02 9.457039999999999891e-01
5.074444382592605690e-02 9.184210000000000429e-01
5.185518671652646766e-02 9.012409999999999588e-01
5.299023919793973553e-02 8.924959999999999560e-01
5.415013688613103116e-02 8.896910000000000096e-01
5.533542508618215922e-02 8.918730000000000269e-01
5.654665825930951795e-02 8.995360000000000023e-01
5.778440269534190765e-02 9.120369999999999866e-01
5.904923992113619846e-02 9.247900000000000009e-01
6.034176368113722960e-02 9.306079999999999908e-01
6.166257977365023624e-02 9.263000000000000123e-01
6.301230579922413588e-02 9.155780000000000030e-01
6.439157495481964699e-02 9.050319999999999476e-01
6.580103648476649802e-02 8.991890000000000160e-01
6.724135160227064090e-02 8.979530000000000012e-01
6.871319291929786632e-02 8.969240000000000546e-01
7.021724865648072689e-02 8.903429999999999955e-01
7.175422799231455373e-02 8.751149999999999762e-01
7.332484622679873165e-02 8.535679999999999934e-01
7.492985067379918929e-02 8.329680000000000417e-01
7.656998328017844413e-02 8.217140000000000555e-01
7.824601847091161577e-02 8.247400000000000286e-01
7.995873489609482687e-02 8.413610000000000255e-01
8.170894587125514252e-02 8.663279999999999870e-01
8.349746848200181870e-02 8.924760000000000471e-01
8.532513483931059017e-02 9.134809999999999874e-01
8.719280666320453066e-02 9.258170000000000011e-01
8.910136197668877545e-02 9.295769999999999866e-01
9.105169441740208758e-02 9.281599999999999850e-01
9.304472101470850909e-02 9.262920000000000043e-01
9.508136492722282784e-02 9.267419999999999547e-01
9.716259003207046441e-02 9.283109999999999973e-01
9.928937600698042876e-02 9.270340000000000247e-01
1.014627169666056788e-01 9.197539999999999605e-01
1.036836198025345573e-01 9.071630000000000527e-01
1.059531470945422049e-01 8.940749999999999531e-01
1.082723426204657002e-01 8.871050000000000324e-01
1.106423073612318730e-01 8.913520000000000332e-01
1.130641434367904014e-01 9.081270000000000175e-01
1.155389888050807612e-01 9.349119999999999653e-01
1.180680199308263012e-01 9.669860000000000122e-01
1.206523964642573915e-01 9.996260000000000145e-01
1.232933427266421494e-01 1.030342000000000091e+00
1.259921091142061633e-01 1.060354000000000019e+00
1.287499385219043613e-01 1.094133999999999940e+00
1.315681276210838024e-01 1.137148999999999965e+00
1.344480149355610776e-01 1.192943000000000087e+00
1.373909270603933253e-01 1.260841000000000101e+00
1.403982677661723133e-01 1.335960000000000036e+00
1.434714465996406174e-01 1.412373000000000101e+00
1.466118729226930095e-01 1.487074000000000007e+00
1.498210387691902012e-01 1.560707000000000066e+00
1.531004603883944215e-01 1.634578000000000086e+00
1.564516759885790365e-01 1.707408000000000037e+00
1.598762174374112610e-01 1.774802999999999908e+00
1.633757347823671657e-01 1.831264000000000003e+00
1.669518482487836186e-01 1.872540000000000093e+00
1.706062493069121222e-01 1.896873999999999949e+00
1.743406480276755433e-01 1.904450999999999894e+00
1.781567686922972404e-01 1.895564000000000027e+00
1.820564109071452219e-01 1.870095999999999981e+00
1.860414236112984399e-01 1.829480999999999913e+00
1.901136708649468487e-01 1.778534000000000059e+00
1.942750635716576912e-01 1.725052000000000030e+00
1.985275213739692568e-01 1.677810000000000024e+00
2.028730886819132551e-01 1.644052999999999987e+00
2.073137384534022021e-01 1.627278999999999920e+00
2.118516148918974384e-01 1.626063999999999954e+00
2.164888283105038391e-01 1.634892000000000012e+00
2.212275340673810209e-01 1.646757999999999944e+00
2.260699835805370650e-01 1.655621999999999927e+00
2.310183752015635139e-01 1.657385000000000108e+00
2.360751096568884100e-01 1.650160999999999989e+00
2.412425341466744866e-01 1.634179000000000048e+00
2.465230998307618715e-01 1.610603999999999925e+00
2.519191833183147544e-01 1.580310000000000104e+00
2.574334553825345373e-01 1.544165999999999928e+00
2.630683822583526066e-01 1.504227999999999899e+00
2.688266710467492326e-01 1.464215999999999962e+00
2.747110108843249798e-01 1.428571000000000035e+00
2.807241335168895180e-01 1.400468999999999964e+00
2.868688920234096495e-01 1.380076999999999998e+00
2.931481028187655768e-01 1.364557999999999938e+00
2.995647922697904919e-01 1.349990000000000023e+00
3.061219491886544297e-01 1.333876999999999979e+00
3.128225983045015424e-01 1.316392000000000007e+00
3.196699982673885665e-01 1.299239999999999950e+00
3.266672524899394969e-01 1.283354000000000106e+00
3.338175913859038335e-01 1.267762000000000056e+00
3.411245032800827026e-01 1.250518999999999936e+00
3.485912903071751723e-01 1.230533000000000099e+00
3.562216425308692980e-01 1.208520000000000039e+00
3.640189144227933826e-01 1.186609999999999943e+00
3.719868599361595973e-01 1.167173000000000016e+00
3.801292743636255911e-01 1.151717000000000102e+00
3.884498326752345854e-01 1.140254000000000101e+00
3.969526737144291051e-01 1.131404000000000076e+00
4.056414997215270768e-01 1.123134999999999994e+00
4.145204868460213854e-01 1.113572000000000006e+00
4.235940173275368759e-01 1.101466999999999974e+00
4.328659535344370757e-01 1.086268999999999929e+00
4.423408678727827614e-01 1.067873999999999990e+00
4.520233696082087693e-01 1.046391000000000071e+00
4.619176604055267865e-01 1.022189999999999932e+00
4.720285331807737017e-01 9.960750000000000437e-01
4.823605567984378673e-01 9.692720000000000224e-01
4.929189725005434508e-01 9.429769999999999541e-01
5.037085542305222985e-01 9.178429999999999644e-01
5.147340034826902722e-01 8.940909999999999691e-01
5.260010193899755659e-01 8.720390000000000086e-01
5.375147682182568332e-01 8.525160000000000515e-01
5.492803329078241870e-01 8.368480000000000363e-01
5.613033013614973088e-01 8.263430000000000497e-01
5.735898580135665448e-01 8.218400000000000150e-01
5.861448258358571417e-01 8.237299999999999622e-01
5.989749143316128732e-01 8.320929999999999715e-01
6.120861303119130570e-01 8.463969999999999549e-01
6.254839682204105245e-01 8.650229999999999864e-01
6.391749019026319312e-01 8.853760000000000518e-01
6.531657310067570110e-01 9.047250000000000014e-01
6.674631727194452191e-01 9.211920000000000108e-01
6.820728740300071591e-01 9.340760000000000174e-01
6.970030263871405118e-01 9.433850000000000291e-01
7.122593364734473020e-01 9.491899999999999782e-01
7.278502433567288765e-01 9.515449999999999742e-01
7.437819826252529687e-01 9.509509999999999907e-01
7.600626595656545526e-01 9.486940000000000373e-01
7.766996323880640540e-01 9.464449999999999807e-01
7.937005574159013976e-01 9.451690000000000369e-01
8.110740810733430006e-01 9.442570000000000130e-01
8.288272757110509703e-01 9.419840000000000435e-01
8.469695429752346350e-01 9.372949999999999893e-01
8.655086161382736787e-01 9.313810000000000144e-01
8.844540397880493732e-01 9.274499999999999966e-01
9.038134601323364326e-01 9.288800000000000390e-01
9.235972635660274488e-01 9.375069999999999792e-01
9.438138195107080852e-01 9.533829999999999805e-01
9.644726842046378312e-01 9.756059999999999732e-01
9.855838648094324972e-01 1.002925999999999984e+00
1.007156856623164121e+00 1.033660000000000023e+00
1.029202594413900052e+00 1.065692000000000084e+00
1.051730412046940843e+00 1.097086000000000006e+00
1.074752242739242414e+00 1.126843000000000039e+00
1.098277132661993116e+00 1.155008999999999952e+00
1.122316821060050707e+00 1.181942999999999966e+00
1.146883687643933891e+00 1.207262000000000057e+00
1.171988078537265165e+00 1.229363999999999901e+00
1.197640647923590596e+00 1.246016999999999930e+00
1.223856887071053556e+00 1.255633999999999917e+00
1.250645645814651763e+00 1.258259999999999934e+00
1.278020601692099190e+00 1.255506000000000011e+00
1.305994514823037633e+00 1.249336999999999920e+00
1.334582502555725414e+00 1.240615999999999941e+00
1.363795059788775355e+00 1.228744000000000058e+00
1.393646643680787944e+00 1.212946999999999997e+00
1.424152486855072564e+00 1.194342999999999932e+00
1.455324450032890349e+00 1.177149999999999919e+00
1.487179029585939727e+00 1.167901000000000078e+00
1.519733742648287977e+00 1.173138000000000014e+00
1.552997595959721311e+00 1.196938999999999975e+00
1.586991746055928854e+00 1.239263000000000003e+00
1.621728568046108876e+00 1.295609999999999928e+00
1.657226002538870313e+00 1.358602000000000087e+00
1.693503044918474698e+00 1.421281999999999934e+00
1.730570880722132499e+00 1.480126999999999970e+00
1.768449794594556090e+00 1.535535000000000094e+00
1.807161419272292235e+00 1.589609000000000050e+00
1.846718657952616915e+00 1.643346999999999891e+00
1.887141395956233536e+00 1.694957999999999965e+00
1.928446905999783967e+00 1.739724999999999966e+00
1.970660801980119947e+00 1.771363000000000021e+00
2.013794492272063863e+00 1.784416000000000002e+00
2.057875696076454375e+00 1.776464000000000043e+00
2.102921167794182811e+00 1.748896999999999924e+00
2.148947875120341244e+00 1.706210999999999922e+00
2.195987491655247315e+00 1.654717999999999911e+00
2.244054377925685628e+00 1.601255000000000095e+00
2.293172994677545429e+00 1.551946000000000048e+00
2.343369202504593130e+00 1.510993000000000031e+00
2.394664687077192156e+00 1.479568999999999912e+00
2.447081854888045971e+00 1.455662999999999929e+00
2.500643915808320461e+00 1.435187999999999908e+00
2.555381505681890708e+00 1.413645000000000040e+00
2.611313778074887182e+00 1.387898999999999994e+00
2.668474113132628389e+00 1.357676000000000105e+00
2.726883526623927079e+00 1.325814000000000048e+00
2.786570957242854973e+00 1.296726999999999963e+00
2.847566896465314912e+00 1.274107000000000101e+00
2.909895098281706893e+00 1.259368999999999961e+00
2.973597428432943612e+00 1.251157000000000075e+00
3.038682427299522981e+00 1.245678999999999981e+00
3.105194680180473732e+00 1.237913000000000041e+00
3.173162659491088000e+00 1.223341999999999929e+00
3.242626267866870915e+00 1.199513999999999969e+00
3.313595350363004233e+00 1.167010000000000103e+00
3.386134456627003964e+00 1.129464999999999941e+00
3.460243531939777739e+00 1.092459999999999987e+00
3.535992871438371044e+00 1.061768000000000045e+00
3.613382523514086397e+00 1.041703000000000046e+00
3.692475841976804229e+00 1.034081000000000028e+00
3.773300128292204736e+00 1.037879999999999914e+00
3.855897402281920350e+00 1.049682999999999922e+00
3.940296625529969621e+00 1.064867999999999926e+00
4.026542971266589888e+00 1.079193000000000069e+00
4.114684485993613805e+00 1.090205000000000091e+00
4.204754736656211023e+00 1.097834999999999894e+00
4.296787721499407020e+00 1.103914999999999980e+00
4.390837200929101236e+00 1.110921000000000047e+00
4.486960891648868355e+00 1.120660999999999907e+00
4.585157844058781684e+00 1.133580999999999950e+00
4.685530612914259763e+00 1.148775000000000102e+00
4.788102522851219511e+00 1.164330000000000087e+00
4.892894538551115780e+00 1.177807000000000048e+00
