# frequency(Hz) HVamp
2.000000000000000042e-02 1.075258000000000047e+00
2.043777802275861116e-02 1.066248000000000085e+00
2.088513892042544867e-02 1.055879999999999930e+00
2.134229185993890415e-02 1.039272999999999891e+00
2.180945121728470465e-02 1.013057000000000096e+00
2.228683671448790371e-02 9.765390000000000459e-01
2.277467095838639488e-02 9.313700000000000312e-01
2.327318386720582041e-02 8.803739999999999899e-01
2.378260869151607032e-02 8.265379999999999949e-01
2.430318396985316209e-02 7.718289999999999873e-01
2.483515418061077798e-02 7.160680000000000378e-01
2.537876860438217572e-02 6.570909999999999807e-01
2.593428185548686538e-02 5.929990000000000538e-01
2.650195524800330604e-02 5.255090000000000039e-01
2.708205410122367304e-02 4.611089999999999911e-01
2.767485116257483238e-02 4.077870000000000106e-01
2.828062296556268368e-02 3.706010000000000137e-01
2.889965516642458918e-02 3.505860000000000087e-01
2.953223712425469966e-02 3.463049999999999740e-01
3.017866585007221089e-02 3.554899999999999727e-01
3.083924344304486698e-02 3.756740000000000079e-01
3.151428172097601316e-02 4.039840000000000098e-01
3.220409460893151193e-02 4.375870000000000037e-01
3.290900679366954434e-02 4.757259999999999822e-01
3.362935008254323843e-02 5.213860000000000161e-01
3.436545982617606604e-02 5.803350000000000453e-01
3.511768145762538679e-02 6.577640000000000153e-01
3.588636982920923035e-02 7.539200000000000346e-01
3.667188287528685281e-02 8.611750000000000238e-01
3.747459035401046190e-02 9.658799999999999608e-01
3.829486888200696326e-02 1.054858000000000073e+00
3.913310161841203338e-02 1.121931999999999929e+00
3.998968266187323539e-02 1.169326000000000088e+00
4.086501260624340881e-02 1.202987999999999946e+00
4.175950326235679244e-02 1.226596999999999937e+00
4.267357455111880221e-02 1.239760999999999891e+00
4.360765235805109941e-02 1.241389999999999993e+00
4.456217573218773653e-02 1.233411999999999953e+00
4.553759360593897382e-02 1.219379999999999908e+00
4.653436264861679494e-02 1.200290999999999997e+00
4.755294901990994583e-02 1.173637999999999959e+00
4.859383060501651364e-02 1.135802999999999896e+00
4.965749734357217948e-02 1.085205999999999893e+00
5.074444382592605690e-02 1.024917999999999996e+00
5.185518671652646766e-02 9.623260000000000147e-01
5.299023919793973553e-02 9.056570000000000453e-01
5.415013688613103116e-02 8.605199999999999516e-01
5.533542508618215922e-02 8.287219999999999587e-01
5.654665825930951795e-02 8.089920000000000444e-01
5.778440269534190765e-02 7.978950000000000209e-01
5.904923992113619846e-02 7.901979999999999560e-01
6.034176368113722960e-02 7.796079999999999677e-01
6.166257977365023624e-02 7.608510000000000550e-01
6.301230579922413588e-02 7.318850000000000078e-01
6.439157495481964699e-02 6.944810000000000150e-01
6.580103648476649802e-02 6.529049999999999576e-01
6.724135160227064090e-02 6.118689999999999962e-01
6.871319291929786632e-02 5.750589999999999868e-01
7.021724865648072689e-02 5.444139999999999535e-01
7.175422799231455373e-02 5.198509999999999520e-01
7.332484622679873165e-02 4.998270000000000213e-01
7.492985067379918929e-02 4.824860000000000260e-01
7.656998328017844413e-02 4.662120000000000153e-01
7.824601847091161577e-02 4.496560000000000001e-01
7.995873489609482687e-02 4.319589999999999819e-01
8.170894587125514252e-02 4.128180000000000183e-01
8.349746848200181870e-02 3.921279999999999766e-01
8.532513483931059017e-02 3.700970000000000093e-01
8.719280666320453066e-02 3.479929999999999968e-01
8.910136197668877545e-02 3.284440000000000137e-01
9.105169441740208758e-02 3.146340000000000248e-01
9.304472101470850909e-02 3.085240000000000204e-01
9.508136492722282784e-02 3.089370000000000172e-01
9.716259003207046441e-02 3.111180000000000057e-01
9.928937600698042876e-02 3.086889999999999912e-01
1.014627169666056788e-01 2.971010000000000040e-01
1.036836198025345573e-01 2.764099999999999890e-01
1.059531470945422049e-01 2.513219999999999898e-01
1.082723426204657002e-01 2.285520000000000052e-01
1.106423073612318730e-01 2.137199999999999933e-01
1.130641434367904014e-01 2.096419999999999950e-01
1.155389888050807612e-01 2.160829999999999973e-01
1.180680199308263012e-01 2.302790000000000115e-01
1.206523964642573915e-01 2.480370000000000075e-01
1.232933427266421494e-01 2.650839999999999863e-01
1.259921091142061633e-01 2.779019999999999824e-01
1.287499385219043613e-01 2.838140000000000107e-01
1.315681276210838024e-01 2.808889999999999998e-01
1.344480149355610776e-01 2.684420000000000139e-01
1.373909270603933253e-01 2.481369999999999965e-01
1.403982677661723133e-01 2.246839999999999948e-01
1.434714465996406174e-01 2.051189999999999958e-01
1.466118729226930095e-01 1.965709999999999957e-01
1.498210387691902012e-01 2.031119999999999870e-01
1.531004603883944215e-01 2.231539999999999913e-01
1.564516759885790365e-01 2.493640000000000023e-01
1.598762174374112610e-01 2.719369999999999843e-01
1.633757347823671657e-01 2.836750000000000105e-01
1.669518482487836186e-01 2.837020000000000097e-01
1.706062493069121222e-01 2.771890000000000187e-01
1.743406480276755433e-01 2.712840000000000251e-01
1.781567686922972404e-01 2.704989999999999895e-01
1.820564109071452219e-01 2.750319999999999987e-01
1.860414236112984399e-01 2.821150000000000047e-01
1.901136708649468487e-01 2.880909999999999860e-01
1.942750635716576912e-01 2.897089999999999943e-01
1.985275213739692568e-01 2.847509999999999764e-01
2.028730886819132551e-01 2.724210000000000242e-01
2.073137384534022021e-01 2.538679999999999826e-01
2.118516148918974384e-01 2.327589999999999937e-01
2.164888283105038391e-01 2.147670000000000134e-01
2.212275340673810209e-01 2.055150000000000032e-01
2.260699835805370650e-01 2.082489999999999897e-01
2.310183752015635139e-01 2.225719999999999921e-01
2.360751096568884100e-01 2.444969999999999921e-01
2.412425341466744866e-01 2.675690000000000013e-01
2.465230998307618715e-01 2.848789999999999933e-01
2.519191833183147544e-01 2.915940000000000198e-01
2.574334553825345373e-01 2.868709999999999871e-01
2.630683822583526066e-01 2.738849999999999896e-01
2.688266710467492326e-01 2.580330000000000124e-01
2.747110108843249798e-01 2.446339999999999903e-01
2.807241335168895180e-01 2.371979999999999922e-01
2.868688920234096495e-01 2.364670000000000105e-01
2.931481028187655768e-01 2.403959999999999986e-01
2.995647922697904919e-01 2.450950000000000073e-01
3.061219491886544297e-01 2.463599999999999957e-01
3.128225983045015424e-01 2.413659999999999972e-01
3.196699982673885665e-01 2.299110000000000043e-01
3.266672524899394969e-01 2.143809999999999882e-01
3.338175913859038335e-01 1.983090000000000130e-01
3.411245032800827026e-01 1.844760000000000011e-01
3.485912903071751723e-01 1.737289999999999945e-01
3.562216425308692980e-01 1.651990000000000125e-01
3.640189144227933826e-01 1.575890000000000069e-01
3.719868599361595973e-01 1.503200000000000092e-01
3.801292743636255911e-01 1.437630000000000019e-01
3.884498326752345854e-01 1.387049999999999950e-01
3.969526737144291051e-01 1.355619999999999881e-01
4.056414997215270768e-01 1.338149999999999895e-01
4.145204868460213854e-01 1.320290000000000075e-01
4.235940173275368759e-01 1.284760000000000069e-01
4.328659535344370757e-01 1.221539999999999987e-01
4.423408678727827614e-01 1.134649999999999964e-01
4.520233696082087693e-01 1.038909999999999972e-01
4.619176604055267865e-01 9.488699999999999912e-02
4.720285331807737017e-01 8.703800000000000425e-02
4.823605567984378673e-01 8.014899999999999802e-02
4.929189725005434508e-01 7.387399999999999523e-02
5.037085542305222985e-01 6.819899999999999574e-02
5.147340034826902722e-01 6.359099999999999475e-02
5.260010193899755659e-01 6.076399999999999857e-02
5.375147682182568332e-01 6.030699999999999950e-02
5.492803329078241870e-01 6.244899999999999757e-02
5.613033013614973088e-01 6.714399999999999535e-02
5.735898580135665448e-01 7.440700000000000092e-02
5.861448258358571417e-01 8.467099999999999627e-02
5.989749143316128732e-01 9.866300000000000070e-02
6.120861303119130570e-01 1.166220000000000034e-01
6.254839682204105245e-01 1.374479999999999869e-01
6.391749019026319312e-01 1.586619999999999975e-01
6.531657310067570110e-01 1.774799999999999989e-01
6.674631727194452191e-01 1.923549999999999982e-01
6.820728740300071591e-01 2.037130000000000052e-01
6.970030263871405118e-01 2.131589999999999874e-01
7.122593364734473020e-01 2.222159999999999969e-01
7.278502433567288765e-01 2.319579999999999975e-01
7.437819826252529687e-01 2.432999999999999885e-01
7.600626595656545526e-01 2.566979999999999817e-01
7.766996323880640540e-01 2.713059999999999916e-01
7.937005574159013976e-01 2.849050000000000193e-01
8.110740810733430006e-01 2.952279999999999904e-01
8.288272757110509703e-01 3.015909999999999980e-01
8.469695429752346350e-01 3.053719999999999768e-01
8.655086161382736787e-01 3.090040000000000009e-01
8.844540397880493732e-01 3.143799999999999928e-01
9.038134601323364326e-01 3.217169999999999752e-01
9.235972635660274488e-01 3.296390000000000153e-01
9.438138195107080852e-01 3.363639999999999963e-01
9.644726842046378312e-01 3.410920000000000063e-01
9.855838648094324972e-01 3.445420000000000149e-01
1.007156856623164121e+00 3.484550000000000147e-01
1.029202594413900052e+00 3.546369999999999800e-01
1.051730412046940843e+00 3.642489999999999895e-01
1.074752242739242414e+00 3.776809999999999889e-01
1.098277132661993116e+00 3.947590000000000265e-01
1.122316821060050707e+00 4.148359999999999825e-01
1.146883687643933891e+00 4.369540000000000091e-01
1.171988078537265165e+00 4.603579999999999894e-01
1.197640647923590596e+00 4.851360000000000117e-01
1.223856887071053556e+00 5.124339999999999451e-01
1.250645645814651763e+00 5.439779999999999616e-01
1.278020601692099190e+00 5.809100000000000374e-01
1.305994514823037633e+00 6.220700000000000118e-01
1.334582502555725414e+00 6.628169999999999895e-01
1.363795059788775355e+00 6.961929999999999508e-01
1.393646643680787944e+00 7.167780000000000262e-01
1.424152486855072564e+00 7.244979999999999754e-01
1.455324450032890349e+00 7.251319999999999988e-01
1.487179029585939727e+00 7.274620000000000530e-01
1.519733742648287977e+00 7.393640000000000212e-01
1.552997595959721311e+00 7.647979999999999778e-01
1.586991746055928854e+00 8.026750000000000274e-01
1.621728568046108876e+00 8.480649999999999578e-01
1.657226002538870313e+00 8.952350000000000030e-01
1.693503044918474698e+00 9.405040000000000067e-01
1.730570880722132499e+00 9.831339999999999524e-01
1.768449794594556090e+00 1.024440999999999935e+00
1.807161419272292235e+00 1.066594000000000042e+00
1.846718657952616915e+00 1.112041999999999975e+00
1.887141395956233536e+00 1.163407999999999998e+00
1.928446905999783967e+00 1.223092999999999986e+00
1.970660801980119947e+00 1.292186999999999975e+00
2.013794492272063863e+00 1.369256000000000029e+00
2.057875696076454375e+00 1.450123000000000051e+00
2.102921167794182811e+00 1.528896999999999951e+00
2.148947875120341244e+00 1.599517000000000078e+00
2.195987491655247315e+00 1.657437999999999967e+00
2.244054377925685628e+00 1.701043000000000083e+00
2.293172994677545429e+00 1.731738000000000000e+00
2.343369202504593130e+00 1.752405999999999908e+00
2.394664687077192156e+00 1.765490999999999921e+00
2.447081854888045971e+00 1.772504999999999997e+00
2.500643915808320461e+00 1.775061999999999918e+00
2.555381505681890708e+00 1.775681999999999983e+00
2.611313778074887182e+00 1.777322999999999986e+00
2.668474113132628389e+00 1.781929000000000096e+00
2.726883526623927079e+00 1.788894999999999902e+00
2.786570957242854973e+00 1.794910999999999923e+00
2.847566896465314912e+00 1.795671999999999935e+00
2.909895098281706893e+00 1.788043999999999967e+00
2.973597428432943612e+00 1.771160000000000068e+00
3.038682427299522981e+00 1.746067999999999953e+00
3.105194680180473732e+00 1.714461000000000013e+00
3.173162659491088000e+00 1.677510000000000057e+00
3.242626267866870915e+00 1.635709000000000080e+00
3.313595350363004233e+00 1.589852999999999961e+00
3.386134456627003964e+00 1.542056000000000093e+00
3.460243531939777739e+00 1.495563999999999893e+00
3.535992871438371044e+00 1.453381999999999952e+00
3.613382523514086397e+00 1.416930000000000023e+00
3.692475841976804229e+00 1.385464999999999947e+00
3.773300128292204736e+00 1.356552999999999898e+00
3.855897402281920350e+00 1.327515999999999918e+00
3.940296625529969621e+00 1.297028000000000070e+00
4.026542971266589888e+00 1.265821000000000085e+00
4.114684485993613805e+00 1.236197999999999908e+00
4.204754736656211023e+00 1.210904999999999898e+00
4.296787721499407020e+00 1.192018999999999940e+00
4.390837200929101236e+00 1.180193000000000048e+00
4.486960891648868355e+00 1.174433999999999978e+00
4.585157844058781684e+00 1.172323999999999922e+00
4.685530612914259763e+00 1.170520999999999923e+00
4.788102522851219511e+00 1.165361000000000091e+00
4.892894538551115780e+00 1.153637000000000024e+00
