# frequency(Hz) HVamp
2.000000000000000042e-02 2.229842000000000102e+00
2.043777802275861116e-02 2.287036000000000069e+00
2.088513892042544867e-02 2.338947999999999805e+00
2.134229185993890415e-02 2.380463000000000218e+00
2.180945121728470465e-02 2.409978999999999871e+00
2.228683671448790371e-02 2.433326999999999796e+00
2.277467095838639488e-02 2.464145999999999948e+00
2.327318386720582041e-02 2.519136000000000042e+00
2.378260869151607032e-02 2.610358999999999874e+00
2.430318396985316209e-02 2.737175000000000136e+00
2.483515418061077798e-02 2.879915000000000003e+00
2.537876860438217572e-02 3.001685999999999854e+00
2.593428185548686538e-02 3.063616000000000117e+00
2.650195524800330604e-02 3.046104999999999841e+00
2.708205410122367304e-02 2.959817000000000142e+00
2.767485116257483238e-02 2.836936999999999820e+00
2.828062296556268368e-02 2.709921000000000024e+00
2.889965516642458918e-02 2.595931000000000211e+00
2.953223712425469966e-02 2.496462000000000181e+00
3.017866585007221089e-02 2.406254999999999811e+00
3.083924344304486698e-02 2.321352000000000082e+00
3.151428172097601316e-02 2.241566000000000169e+00
3.220409460893151193e-02 2.168585000000000207e+00
3.290900679366954434e-02 2.103186000000000000e+00
3.362935008254323843e-02 2.044007000000000129e+00
3.436545982617606604e-02 1.988275000000000015e+00
3.511768145762538679e-02 1.933292000000000010e+00
3.588636982920923035e-02 1.877315000000000067e+00
3.667188287528685281e-02 1.819612000000000007e+00
3.747459035401046190e-02 1.760242000000000084e+00
3.829486888200696326e-02 1.699891000000000041e+00
3.913310161841203338e-02 1.639987000000000084e+00
3.998968266187323539e-02 1.583064999999999944e+00
4.086501260624340881e-02 1.532688000000000050e+00
4.175950326235679244e-02 1.492267999999999928e+00
4.267357455111880221e-02 1.463079000000000018e+00
4.360765235805109941e-02 1.442933999999999939e+00
4.456217573218773653e-02 1.427087999999999912e+00
4.553759360593897382e-02 1.411129999999999995e+00
4.653436264861679494e-02 1.393486000000000002e+00
4.755294901990994583e-02 1.375126000000000071e+00
4.859383060501651364e-02 1.357844000000000051e+00
4.965749734357217948e-02 1.343561000000000005e+00
5.074444382592605690e-02 1.333050999999999986e+00
5.185518671652646766e-02 1.324837999999999960e+00
5.299023919793973553e-02 1.315804999999999891e+00
5.415013688613103116e-02 1.302275999999999989e+00
5.533542508618215922e-02 1.280979000000000090e+00
5.654665825930951795e-02 1.250213999999999936e+00
5.778440269534190765e-02 1.211462999999999957e+00
5.904923992113619846e-02 1.170282000000000044e+00
6.034176368113722960e-02 1.134659000000000084e+00
6.166257977365023624e-02 1.111064000000000052e+00
6.301230579922413588e-02 1.101307999999999954e+00
6.439157495481964699e-02 1.101992000000000083e+00
6.580103648476649802e-02 1.106630999999999920e+00
6.724135160227064090e-02 1.109131000000000089e+00
6.871319291929786632e-02 1.106235999999999997e+00
7.021724865648072689e-02 1.097995999999999972e+00
7.175422799231455373e-02 1.086878999999999929e+00
7.332484622679873165e-02 1.076429999999999998e+00
7.492985067379918929e-02 1.069795999999999969e+00
7.656998328017844413e-02 1.068486000000000047e+00
7.824601847091161577e-02 1.072311999999999932e+00
7.995873489609482687e-02 1.080397000000000052e+00
8.170894587125514252e-02 1.091793000000000013e+00
8.349746848200181870e-02 1.104972000000000065e+00
8.532513483931059017e-02 1.117156000000000038e+00
8.719280666320453066e-02 1.124878000000000045e+00
8.910136197668877545e-02 1.125496000000000052e+00
9.105169441740208758e-02 1.118349999999999955e+00
9.304472101470850909e-02 1.104899999999999993e+00
9.508136492722282784e-02 1.087782999999999944e+00
9.716259003207046441e-02 1.069266999999999967e+00
9.928937600698042876e-02 1.050324000000000035e+00
1.014627169666056788e-01 1.030880999999999936e+00
1.036836198025345573e-01 1.010834000000000010e+00
1.059531470945422049e-01 9.908329999999999638e-01
1.082723426204657002e-01 9.720809999999999729e-01
1.106423073612318730e-01 9.554489999999999927e-01
1.130641434367904014e-01 9.406309999999999949e-01
1.155389888050807612e-01 9.259699999999999598e-01
1.180680199308263012e-01 9.093729999999999869e-01
1.206523964642573915e-01 8.898230000000000306e-01
1.232933427266421494e-01 8.683300000000000463e-01
1.259921091142061633e-01 8.476120000000000321e-01
1.287499385219043613e-01 8.305630000000000512e-01
1.315681276210838024e-01 8.185310000000000086e-01
1.344480149355610776e-01 8.109950000000000214e-01
1.373909270603933253e-01 8.068910000000000249e-01
1.403982677661723133e-01 8.059300000000000352e-01
1.434714465996406174e-01 8.085290000000000532e-01
1.466118729226930095e-01 8.147339999999999582e-01
1.498210387691902012e-01 8.234799999999999898e-01
1.531004603883944215e-01 8.331809999999999494e-01
1.564516759885790365e-01 8.431499999999999551e-01
1.598762174374112610e-01 8.539529999999999621e-01
1.633757347823671657e-01 8.660320000000000240e-01
1.669518482487836186e-01 8.781870000000000509e-01
1.706062493069121222e-01 8.878319999999999546e-01
1.743406480276755433e-01 8.930519999999999570e-01
1.781567686922972404e-01 8.944290000000000296e-01
1.820564109071452219e-01 8.950569999999999915e-01
1.860414236112984399e-01 8.988190000000000346e-01
1.901136708649468487e-01 9.081519999999999593e-01
1.942750635716576912e-01 9.228629999999999889e-01
1.985275213739692568e-01 9.409319999999999906e-01
2.028730886819132551e-01 9.606289999999999552e-01
2.073137384534022021e-01 9.819919999999999760e-01
2.118516148918974384e-01 1.006197000000000008e+00
2.164888283105038391e-01 1.033692999999999973e+00
2.212275340673810209e-01 1.063229999999999897e+00
2.260699835805370650e-01 1.092654999999999932e+00
2.310183752015635139e-01 1.120109000000000021e+00
2.360751096568884100e-01 1.144470000000000098e+00
2.412425341466744866e-01 1.165548999999999946e+00
2.465230998307618715e-01 1.184317999999999982e+00
2.519191833183147544e-01 1.202598999999999974e+00
2.574334553825345373e-01 1.222120000000000095e+00
2.630683822583526066e-01 1.243773000000000017e+00
2.688266710467492326e-01 1.267778000000000072e+00
2.747110108843249798e-01 1.294567000000000023e+00
2.807241335168895180e-01 1.325444000000000067e+00
2.868688920234096495e-01 1.362009000000000025e+00
2.931481028187655768e-01 1.404107999999999912e+00
2.995647922697904919e-01 1.448196000000000039e+00
3.061219491886544297e-01 1.488707000000000003e+00
3.128225983045015424e-01 1.521994999999999987e+00
3.196699982673885665e-01 1.549145999999999912e+00
3.266672524899394969e-01 1.575104999999999977e+00
3.338175913859038335e-01 1.605337999999999932e+00
3.411245032800827026e-01 1.643108999999999931e+00
3.485912903071751723e-01 1.688927999999999985e+00
3.562216425308692980e-01 1.741516999999999982e+00
3.640189144227933826e-01 1.799023000000000039e+00
3.719868599361595973e-01 1.859782999999999964e+00
3.801292743636255911e-01 1.922525000000000039e+00
3.884498326752345854e-01 1.986108999999999902e+00
3.969526737144291051e-01 2.049027000000000154e+00
4.056414997215270768e-01 2.109306999999999821e+00
4.145204868460213854e-01 2.165488999999999997e+00
4.235940173275368759e-01 2.217779999999999863e+00
4.328659535344370757e-01 2.267904000000000142e+00
4.423408678727827614e-01 2.317588000000000203e+00
4.520233696082087693e-01 2.366684999999999928e+00
4.619176604055267865e-01 2.412040999999999880e+00
4.720285331807737017e-01 2.448312000000000044e+00
4.823605567984378673e-01 2.471232000000000095e+00
4.929189725005434508e-01 2.481562999999999963e+00
5.037085542305222985e-01 2.486585999999999963e+00
5.147340034826902722e-01 2.497005000000000141e+00
5.260010193899755659e-01 2.520720999999999989e+00
5.375147682182568332e-01 2.557790999999999926e+00
5.492803329078241870e-01 2.600274999999999892e+00
5.613033013614973088e-01 2.636833000000000204e+00
5.735898580135665448e-01 2.658420000000000005e+00
5.861448258358571417e-01 2.661725000000000119e+00
5.989749143316128732e-01 2.649582000000000104e+00
6.120861303119130570e-01 2.629096000000000100e+00
6.254839682204105245e-01 2.608248000000000122e+00
6.391749019026319312e-01 2.592115000000000169e+00
6.531657310067570110e-01 2.580440999999999985e+00
6.674631727194452191e-01 2.568016000000000076e+00
6.820728740300071591e-01 2.547947999999999880e+00
6.970030263871405118e-01 2.516084000000000209e+00
7.122593364734473020e-01 2.473253999999999841e+00
7.278502433567288765e-01 2.423772000000000038e+00
7.437819826252529687e-01 2.372180000000000177e+00
7.600626595656545526e-01 2.321031000000000066e+00
7.766996323880640540e-01 2.271037999999999890e+00
7.937005574159013976e-01 2.222490000000000077e+00
8.110740810733430006e-01 2.175634000000000068e+00
8.288272757110509703e-01 2.129405999999999910e+00
8.469695429752346350e-01 2.080296999999999841e+00
8.655086161382736787e-01 2.023436999999999930e+00
8.844540397880493732e-01 1.955851999999999924e+00
9.038134601323364326e-01 1.879660000000000108e+00
9.235972635660274488e-01 1.802456000000000058e+00
9.438138195107080852e-01 1.734153000000000056e+00
9.644726842046378312e-01 1.682625999999999955e+00
9.855838648094324972e-01 1.651041999999999899e+00
1.007156856623164121e+00 1.637658000000000058e+00
1.029202594413900052e+00 1.637521999999999922e+00
1.051730412046940843e+00 1.645086999999999966e+00
1.074752242739242414e+00 1.656627999999999989e+00
1.098277132661993116e+00 1.671600999999999893e+00
1.122316821060050707e+00 1.692328999999999972e+00
1.146883687643933891e+00 1.722021999999999942e+00
1.171988078537265165e+00 1.762234000000000078e+00
1.197640647923590596e+00 1.811355000000000048e+00
1.223856887071053556e+00 1.864943000000000017e+00
1.250645645814651763e+00 1.917669999999999986e+00
1.278020601692099190e+00 1.965850000000000097e+00
1.305994514823037633e+00 2.009174999999999933e+00
1.334582502555725414e+00 2.050641999999999854e+00
1.363795059788775355e+00 2.094507999999999814e+00
1.393646643680787944e+00 2.143082999999999849e+00
1.424152486855072564e+00 2.194150000000000045e+00
1.455324450032890349e+00 2.240863000000000049e+00
1.487179029585939727e+00 2.274519999999999875e+00
1.519733742648287977e+00 2.288629999999999942e+00
1.552997595959721311e+00 2.281975000000000087e+00
1.586991746055928854e+00 2.259122000000000074e+00
1.621728568046108876e+00 2.227968999999999866e+00
1.657226002538870313e+00 2.195555000000000145e+00
1.693503044918474698e+00 2.164814999999999934e+00
1.730570880722132499e+00 2.134466000000000196e+00
1.768449794594556090e+00 2.101649000000000100e+00
1.807161419272292235e+00 2.064845000000000041e+00
1.846718657952616915e+00 2.025056000000000189e+00
1.887141395956233536e+00 1.985184000000000060e+00
1.928446905999783967e+00 1.948420999999999959e+00
1.970660801980119947e+00 1.916782999999999904e+00
2.013794492272063863e+00 1.890646999999999966e+00
2.057875696076454375e+00 1.869261000000000061e+00
2.102921167794182811e+00 1.851455000000000073e+00
2.148947875120341244e+00 1.835917000000000021e+00
2.195987491655247315e+00 1.821279000000000092e+00
2.244054377925685628e+00 1.806260999999999894e+00
2.293172994677545429e+00 1.789700999999999986e+00
2.343369202504593130e+00 1.770462999999999898e+00
2.394664687077192156e+00 1.747861000000000109e+00
2.447081854888045971e+00 1.722487000000000101e+00
2.500643915808320461e+00 1.696403000000000105e+00
2.555381505681890708e+00 1.672260000000000080e+00
2.611313778074887182e+00 1.651896999999999949e+00
2.668474113132628389e+00 1.635239000000000109e+00
2.726883526623927079e+00 1.620079999999999965e+00
2.786570957242854973e+00 1.603091999999999961e+00
2.847566896465314912e+00 1.581707999999999892e+00
2.909895098281706893e+00 1.555760999999999949e+00
2.973597428432943612e+00 1.527732000000000090e+00
3.038682427299522981e+00 1.501444000000000001e+00
3.105194680180473732e+00 1.480188000000000059e+00
3.173162659491088000e+00 1.465584999999999916e+00
3.242626267866870915e+00 1.457664000000000071e+00
3.313595350363004233e+00 1.455473999999999934e+00
3.386134456627003964e+00 1.457756999999999969e+00
3.460243531939777739e+00 1.463576999999999906e+00
3.535992871438371044e+00 1.472617000000000065e+00
3.613382523514086397e+00 1.484612000000000043e+00
3.692475841976804229e+00 1.498223000000000082e+00
3.773300128292204736e+00 1.510612000000000066e+00
3.855897402281920350e+00 1.518394000000000021e+00
3.940296625529969621e+00 1.519309999999999938e+00
4.026542971266589888e+00 1.513344999999999940e+00
4.114684485993613805e+00 1.502636000000000083e+00
4.204754736656211023e+00 1.490342999999999973e+00
4.296787721499407020e+00 1.479341999999999935e+00
4.390837200929101236e+00 1.471491000000000104e+00
4.486960891648868355e+00 1.467630999999999908e+00
4.585157844058781684e+00 1.468185999999999991e+00
4.685530612914259763e+00 1.473830999999999891e+00
4.788102522851219511e+00 1.485667999999999989e+00
4.892894538551115780e+00 1.504737999999999909e+00
