# frequency(Hz) HVamp
2.000000000000000042e-02 1.626241999999999965e+00
2.043777802275861116e-02 1.620587999999999917e+00
2.088513892042544867e-02 1.608633999999999897e+00
2.134229185993890415e-02 1.591480999999999923e+00
2.180945121728470465e-02 1.569676000000000071e+00
2.228683671448790371e-02 1.543009999999999993e+00
2.277467095838639488e-02 1.511744999999999894e+00
2.327318386720582041e-02 1.477327999999999975e+00
2.378260869151607032e-02 1.441880999999999968e+00
2.430318396985316209e-02 1.407810999999999924e+00
2.483515418061077798e-02 1.376484999999999959e+00
2.537876860438217572e-02 1.348160999999999943e+00
2.593428185548686538e-02 1.323757999999999990e+00
2.650195524800330604e-02 1.305342999999999920e+00
2.708205410122367304e-02 1.294851999999999892e+00
2.767485116257483238e-02 1.292550000000000088e+00
2.828062296556268368e-02 1.296605000000000008e+00
2.889965516642458918e-02 1.304262000000000032e+00
2.953223712425469966e-02 1.313555000000000028e+00
3.017866585007221089e-02 1.323946000000000067e+00
3.083924344304486698e-02 1.335719000000000101e+00
3.151428172097601316e-02 1.348910999999999971e+00
3.220409460893151193e-02 1.362768999999999897e+00
3.290900679366954434e-02 1.375858999999999943e+00
3.362935008254323843e-02 1.386651000000000078e+00
3.436545982617606604e-02 1.394230999999999998e+00
3.511768145762538679e-02 1.399037000000000086e+00
3.588636982920923035e-02 1.402992000000000017e+00
3.667188287528685281e-02 1.408269999999999911e+00
3.747459035401046190e-02 1.415499999999999980e+00
3.829486888200696326e-02 1.423246999999999929e+00
3.913310161841203338e-02 1.428712999999999900e+00
3.998968266187323539e-02 1.428330000000000100e+00
4.086501260624340881e-02 1.418373000000000106e+00
4.175950326235679244e-02 1.396682999999999897e+00
4.267357455111880221e-02 1.365548999999999902e+00
4.360765235805109941e-02 1.332959000000000005e+00
4.456217573218773653e-02 1.309393000000000029e+00
4.553759360593897382e-02 1.302256000000000080e+00
4.653436264861679494e-02 1.312977000000000061e+00
4.755294901990994583e-02 1.337863999999999942e+00
4.859383060501651364e-02 1.368603999999999932e+00
4.965749734357217948e-02 1.393885000000000041e+00
5.074444382592605690e-02 1.406384000000000079e+00
5.185518671652646766e-02 1.406829000000000107e+00
5.299023919793973553e-02 1.401286999999999949e+00
5.415013688613103116e-02 1.396182999999999952e+00
5.533542508618215922e-02 1.394646000000000052e+00
5.654665825930951795e-02 1.395258000000000109e+00
5.778440269534190765e-02 1.392848000000000086e+00
5.904923992113619846e-02 1.380878999999999968e+00
6.034176368113722960e-02 1.355329000000000006e+00
6.166257977365023624e-02 1.317339999999999955e+00
6.301230579922413588e-02 1.271643000000000079e+00
6.439157495481964699e-02 1.223491000000000106e+00
6.580103648476649802e-02 1.176374000000000031e+00
6.724135160227064090e-02 1.131715999999999944e+00
6.871319291929786632e-02 1.090567000000000064e+00
7.021724865648072689e-02 1.054801000000000100e+00
7.175422799231455373e-02 1.026272999999999991e+00
7.332484622679873165e-02 1.005899000000000099e+00
7.492985067379918929e-02 9.945070000000000299e-01
7.656998328017844413e-02 9.927759999999999918e-01
7.824601847091161577e-02 9.995549999999999713e-01
7.995873489609482687e-02 1.011727000000000043e+00
8.170894587125514252e-02 1.025368999999999975e+00
8.349746848200181870e-02 1.036604999999999999e+00
8.532513483931059017e-02 1.042111000000000010e+00
8.719280666320453066e-02 1.040010000000000101e+00
8.910136197668877545e-02 1.030933000000000099e+00
9.105169441740208758e-02 1.018237000000000059e+00
9.304472101470850909e-02 1.006717000000000084e+00
9.508136492722282784e-02 9.996300000000000185e-01
9.716259003207046441e-02 9.959480000000000555e-01
9.928937600698042876e-02 9.910750000000000393e-01
1.014627169666056788e-01 9.801549999999999985e-01
1.036836198025345573e-01 9.609680000000000444e-01
1.059531470945422049e-01 9.353280000000000483e-01
1.082723426204657002e-01 9.087769999999999460e-01
1.106423073612318730e-01 8.880839999999999845e-01
1.130641434367904014e-01 8.775960000000000427e-01
1.155389888050807612e-01 8.769670000000000520e-01
1.180680199308263012e-01 8.816629999999999745e-01
1.206523964642573915e-01 8.856490000000000196e-01
1.232933427266421494e-01 8.844779999999999864e-01
1.259921091142061633e-01 8.772269999999999790e-01
1.287499385219043613e-01 8.665950000000000042e-01
1.315681276210838024e-01 8.570240000000000080e-01
1.344480149355610776e-01 8.519120000000000026e-01
1.373909270603933253e-01 8.519039999999999946e-01
1.403982677661723133e-01 8.552549999999999875e-01
1.434714465996406174e-01 8.595589999999999620e-01
1.466118729226930095e-01 8.636129999999999640e-01
1.498210387691902012e-01 8.683389999999999720e-01
1.531004603883944215e-01 8.762029999999999541e-01
1.564516759885790365e-01 8.896370000000000111e-01
1.598762174374112610e-01 9.095779999999999976e-01
1.633757347823671657e-01 9.347159999999999913e-01
1.669518482487836186e-01 9.617609999999999770e-01
1.706062493069121222e-01 9.871389999999999887e-01
1.743406480276755433e-01 1.009195000000000064e+00
1.781567686922972404e-01 1.028750000000000053e+00
1.820564109071452219e-01 1.047746999999999984e+00
1.860414236112984399e-01 1.067801000000000000e+00
1.901136708649468487e-01 1.089722000000000079e+00
1.942750635716576912e-01 1.113380000000000036e+00
1.985275213739692568e-01 1.137564000000000020e+00
2.028730886819132551e-01 1.160563999999999929e+00
2.073137384534022021e-01 1.181508999999999920e+00
2.118516148918974384e-01 1.201438999999999924e+00
2.164888283105038391e-01 1.223108000000000084e+00
2.212275340673810209e-01 1.249141000000000057e+00
2.260699835805370650e-01 1.279260000000000064e+00
2.310183752015635139e-01 1.309034999999999949e+00
2.360751096568884100e-01 1.332381999999999955e+00
2.412425341466744866e-01 1.346044000000000018e+00
2.465230998307618715e-01 1.351296000000000053e+00
2.519191833183147544e-01 1.351275999999999922e+00
2.574334553825345373e-01 1.347585999999999951e+00
2.630683822583526066e-01 1.339984000000000064e+00
2.688266710467492326e-01 1.328934000000000060e+00
2.747110108843249798e-01 1.317857000000000056e+00
2.807241335168895180e-01 1.312432000000000043e+00
2.868688920234096495e-01 1.317207999999999934e+00
2.931481028187655768e-01 1.332170999999999994e+00
2.995647922697904919e-01 1.352066999999999908e+00
3.061219491886544297e-01 1.369070999999999927e+00
3.128225983045015424e-01 1.377224000000000004e+00
3.196699982673885665e-01 1.376082999999999945e+00
3.266672524899394969e-01 1.370889000000000024e+00
3.338175913859038335e-01 1.368538999999999950e+00
3.411245032800827026e-01 1.372171000000000030e+00
3.485912903071751723e-01 1.378965999999999914e+00
3.562216425308692980e-01 1.383164999999999978e+00
3.640189144227933826e-01 1.381421999999999928e+00
3.719868599361595973e-01 1.375461000000000045e+00
3.801292743636255911e-01 1.370387000000000022e+00
3.884498326752345854e-01 1.371339000000000086e+00
3.969526737144291051e-01 1.381161000000000083e+00
4.056414997215270768e-01 1.399729999999999919e+00
4.145204868460213854e-01 1.424809999999999910e+00
4.235940173275368759e-01 1.454291999999999918e+00
4.328659535344370757e-01 1.488307000000000047e+00
4.423408678727827614e-01 1.529266999999999932e+00
4.520233696082087693e-01 1.579661999999999900e+00
4.619176604055267865e-01 1.639718999999999927e+00
4.720285331807737017e-01 1.706669999999999909e+00
4.823605567984378673e-01 1.775728999999999891e+00
4.929189725005434508e-01 1.841957000000000066e+00
5.037085542305222985e-01 1.901637000000000022e+00
5.147340034826902722e-01 1.952034999999999965e+00
5.260010193899755659e-01 1.990193000000000101e+00
5.375147682182568332e-01 2.012878999999999863e+00
5.492803329078241870e-01 2.018208000000000002e+00
5.613033013614973088e-01 2.007258999999999904e+00
5.735898580135665448e-01 1.984803000000000095e+00
5.861448258358571417e-01 1.958777999999999908e+00
5.989749143316128732e-01 1.938298000000000076e+00
6.120861303119130570e-01 1.930566999999999922e+00
6.254839682204105245e-01 1.937446999999999919e+00
6.391749019026319312e-01 1.953338000000000019e+00
6.531657310067570110e-01 1.966970000000000107e+00
6.674631727194452191e-01 1.967319999999999958e+00
6.820728740300071591e-01 1.949864999999999959e+00
6.970030263871405118e-01 1.918150999999999939e+00
7.122593364734473020e-01 1.879968000000000083e+00
7.278502433567288765e-01 1.842332000000000081e+00
7.437819826252529687e-01 1.808874000000000093e+00
7.600626595656545526e-01 1.779725999999999919e+00
7.766996323880640540e-01 1.752715999999999941e+00
7.937005574159013976e-01 1.725324000000000080e+00
8.110740810733430006e-01 1.696590000000000042e+00
8.288272757110509703e-01 1.667750000000000066e+00
8.469695429752346350e-01 1.641335999999999906e+00
8.655086161382736787e-01 1.619807999999999915e+00
8.844540397880493732e-01 1.604837999999999987e+00
9.038134601323364326e-01 1.597379000000000104e+00
9.235972635660274488e-01 1.598192999999999975e+00
9.438138195107080852e-01 1.608333000000000013e+00
9.644726842046378312e-01 1.628900999999999932e+00
9.855838648094324972e-01 1.659883999999999915e+00
1.007156856623164121e+00 1.699008999999999991e+00
1.029202594413900052e+00 1.741999000000000075e+00
1.051730412046940843e+00 1.784335000000000004e+00
1.074752242739242414e+00 1.823050000000000059e+00
1.098277132661993116e+00 1.857170999999999905e+00
1.122316821060050707e+00 1.886983999999999995e+00
1.146883687643933891e+00 1.913022000000000000e+00
1.171988078537265165e+00 1.935734999999999983e+00
1.197640647923590596e+00 1.956048000000000009e+00
1.223856887071053556e+00 1.975711999999999913e+00
1.250645645814651763e+00 1.996574999999999989e+00
1.278020601692099190e+00 2.019521000000000122e+00
1.305994514823037633e+00 2.044211999999999918e+00
1.334582502555725414e+00 2.069625999999999966e+00
1.363795059788775355e+00 2.094637000000000082e+00
1.393646643680787944e+00 2.117996000000000212e+00
1.424152486855072564e+00 2.138212999999999919e+00
1.455324450032890349e+00 2.154253000000000196e+00
1.487179029585939727e+00 2.166973000000000038e+00
1.519733742648287977e+00 2.179704000000000086e+00
1.552997595959721311e+00 2.196628000000000025e+00
1.586991746055928854e+00 2.219530999999999921e+00
1.621728568046108876e+00 2.245687000000000211e+00
1.657226002538870313e+00 2.268946999999999825e+00
1.693503044918474698e+00 2.283663999999999916e+00
1.730570880722132499e+00 2.288711999999999858e+00
1.768449794594556090e+00 2.288419999999999899e+00
1.807161419272292235e+00 2.289382999999999946e+00
1.846718657952616915e+00 2.295609999999999928e+00
1.887141395956233536e+00 2.305692000000000075e+00
1.928446905999783967e+00 2.313703999999999983e+00
1.970660801980119947e+00 2.312739999999999796e+00
2.013794492272063863e+00 2.298690999999999818e+00
2.057875696076454375e+00 2.272412000000000099e+00
2.102921167794182811e+00 2.239666000000000157e+00
2.148947875120341244e+00 2.208749000000000073e+00
2.195987491655247315e+00 2.186700999999999784e+00
2.244054377925685628e+00 2.176417999999999964e+00
2.293172994677545429e+00 2.176196000000000019e+00
2.343369202504593130e+00 2.181246999999999936e+00
2.394664687077192156e+00 2.186015999999999959e+00
2.447081854888045971e+00 2.186202999999999896e+00
2.500643915808320461e+00 2.179873999999999867e+00
2.555381505681890708e+00 2.167463000000000140e+00
2.611313778074887182e+00 2.150587999999999944e+00
2.668474113132628389e+00 2.129820000000000046e+00
2.726883526623927079e+00 2.102914999999999868e+00
2.786570957242854973e+00 2.065793000000000212e+00
2.847566896465314912e+00 2.016335999999999906e+00
2.909895098281706893e+00 1.957349000000000006e+00
2.973597428432943612e+00 1.895653999999999950e+00
3.038682427299522981e+00 1.838608000000000020e+00
3.105194680180473732e+00 1.790979000000000099e+00
3.173162659491088000e+00 1.753629000000000104e+00
3.242626267866870915e+00 1.723919999999999897e+00
3.313595350363004233e+00 1.697173999999999960e+00
3.386134456627003964e+00 1.668673999999999991e+00
3.460243531939777739e+00 1.635509000000000102e+00
3.535992871438371044e+00 1.597402999999999906e+00
3.613382523514086397e+00 1.556380000000000097e+00
3.692475841976804229e+00 1.515852999999999895e+00
3.773300128292204736e+00 1.479470000000000063e+00
3.855897402281920350e+00 1.449962999999999891e+00
3.940296625529969621e+00 1.428326999999999902e+00
4.026542971266589888e+00 1.413745000000000029e+00
4.114684485993613805e+00 1.404398000000000035e+00
4.204754736656211023e+00 1.398625000000000007e+00
4.296787721499407020e+00 1.395766000000000062e+00
4.390837200929101236e+00 1.396335000000000104e+00
4.486960891648868355e+00 1.401504000000000083e+00
4.585157844058781684e+00 1.412331000000000003e+00
4.685530612914259763e+00 1.429226000000000107e+00
4.788102522851219511e+00 1.451710999999999974e+00
4.892894538551115780e+00 1.478388000000000035e+00
