# frequency(Hz) HVamp
2.000000000000000042e-02 1.565274999999999972e+00
2.043777802275861116e-02 1.540462999999999916e+00
2.088513892042544867e-02 1.517412999999999901e+00
2.134229185993890415e-02 1.498242999999999991e+00
2.180945121728470465e-02 1.482531000000000043e+00
2.228683671448790371e-02 1.467279000000000000e+00
2.277467095838639488e-02 1.449446999999999930e+00
2.327318386720582041e-02 1.428387999999999991e+00
2.378260869151607032e-02 1.405909000000000075e+00
2.430318396985316209e-02 1.384352000000000027e+00
2.483515418061077798e-02 1.365232000000000001e+00
2.537876860438217572e-02 1.348791999999999991e+00
2.593428185548686538e-02 1.334672999999999998e+00
2.650195524800330604e-02 1.322488000000000108e+00
2.708205410122367304e-02 1.311741999999999964e+00
2.767485116257483238e-02 1.301973000000000047e+00
2.828062296556268368e-02 1.293614999999999959e+00
2.889965516642458918e-02 1.289449999999999985e+00
2.953223712425469966e-02 1.294507000000000074e+00
3.017866585007221089e-02 1.312780000000000058e+00
3.083924344304486698e-02 1.344354000000000049e+00
3.151428172097601316e-02 1.385105999999999948e+00
3.220409460893151193e-02 1.427863000000000104e+00
3.290900679366954434e-02 1.464769999999999905e+00
3.362935008254323843e-02 1.490180000000000060e+00
3.436545982617606604e-02 1.501970999999999945e+00
3.511768145762538679e-02 1.501014999999999988e+00
3.588636982920923035e-02 1.490051000000000014e+00
3.667188287528685281e-02 1.472309000000000090e+00
3.747459035401046190e-02 1.450344999999999995e+00
3.829486888200696326e-02 1.425867999999999913e+00
3.913310161841203338e-02 1.399666999999999994e+00
3.998968266187323539e-02 1.371065999999999896e+00
4.086501260624340881e-02 1.337755000000000027e+00
4.175950326235679244e-02 1.297174999999999967e+00
4.267357455111880221e-02 1.249784999999999924e+00
4.360765235805109941e-02 1.201964999999999950e+00
4.456217573218773653e-02 1.165129000000000081e+00
4.553759360593897382e-02 1.150295000000000067e+00
4.653436264861679494e-02 1.161591000000000040e+00
4.755294901990994583e-02 1.193899000000000044e+00
4.859383060501651364e-02 1.235457999999999945e+00
4.965749734357217948e-02 1.273060999999999998e+00
5.074444382592605690e-02 1.298928000000000083e+00
5.185518671652646766e-02 1.314211000000000018e+00
5.299023919793973553e-02 1.325836000000000015e+00
5.415013688613103116e-02 1.341529999999999889e+00
5.533542508618215922e-02 1.366357000000000044e+00
5.654665825930951795e-02 1.400652999999999926e+00
5.778440269534190765e-02 1.439122999999999930e+00
5.904923992113619846e-02 1.471975999999999951e+00
6.034176368113722960e-02 1.490396000000000054e+00
6.166257977365023624e-02 1.494081999999999910e+00
6.301230579922413588e-02 1.490521999999999903e+00
6.439157495481964699e-02 1.487627000000000033e+00
6.580103648476649802e-02 1.489371000000000000e+00
6.724135160227064090e-02 1.494909000000000043e+00
6.871319291929786632e-02 1.499390999999999918e+00
7.021724865648072689e-02 1.496663000000000077e+00
7.175422799231455373e-02 1.483222000000000040e+00
7.332484622679873165e-02 1.460564999999999891e+00
7.492985067379918929e-02 1.433886999999999912e+00
7.656998328017844413e-02 1.408781999999999979e+00
7.824601847091161577e-02 1.388432000000000111e+00
7.995873489609482687e-02 1.372970000000000024e+00
8.170894587125514252e-02 1.360797000000000034e+00
8.349746848200181870e-02 1.349704999999999933e+00
8.532513483931059017e-02 1.337050999999999989e+00
8.719280666320453066e-02 1.320367000000000068e+00
8.910136197668877545e-02 1.299317999999999973e+00
9.105169441740208758e-02 1.276888000000000023e+00
9.304472101470850909e-02 1.257460999999999940e+00
9.508136492722282784e-02 1.243425000000000002e+00
9.716259003207046441e-02 1.233564000000000105e+00
9.928937600698042876e-02 1.223805000000000032e+00
1.014627169666056788e-01 1.209761000000000086e+00
1.036836198025345573e-01 1.189440000000000053e+00
1.059531470945422049e-01 1.164595000000000047e+00
1.082723426204657002e-01 1.140433999999999948e+00
1.106423073612318730e-01 1.123345999999999956e+00
1.130641434367904014e-01 1.117296000000000067e+00
1.155389888050807612e-01 1.121277000000000079e+00
1.180680199308263012e-01 1.129687000000000108e+00
1.206523964642573915e-01 1.135348000000000024e+00
1.232933427266421494e-01 1.133223000000000091e+00
1.259921091142061633e-01 1.122576999999999936e+00
1.287499385219043613e-01 1.106433999999999918e+00
1.315681276210838024e-01 1.089074000000000098e+00
1.344480149355610776e-01 1.073393999999999959e+00
1.373909270603933253e-01 1.059754000000000085e+00
1.403982677661723133e-01 1.046594999999999942e+00
1.434714465996406174e-01 1.032067000000000068e+00
1.466118729226930095e-01 1.015765999999999947e+00
1.498210387691902012e-01 9.994589999999999863e-01
1.531004603883944215e-01 9.862119999999999775e-01
1.564516759885790365e-01 9.784530000000000172e-01
1.598762174374112610e-01 9.763169999999999904e-01
1.633757347823671657e-01 9.772619999999999640e-01
1.669518482487836186e-01 9.773260000000000280e-01
1.706062493069121222e-01 9.735150000000000192e-01
1.743406480276755433e-01 9.657240000000000268e-01
1.781567686922972404e-01 9.567309999999999981e-01
1.820564109071452219e-01 9.507919999999999705e-01
1.860414236112984399e-01 9.520300000000000429e-01
1.901136708649468487e-01 9.629910000000000414e-01
1.942750635716576912e-01 9.835369999999999946e-01
1.985275213739692568e-01 1.010605999999999893e+00
2.028730886819132551e-01 1.038988999999999940e+00
2.073137384534022021e-01 1.062877000000000072e+00
2.118516148918974384e-01 1.077812999999999910e+00
2.164888283105038391e-01 1.082634000000000096e+00
2.212275340673810209e-01 1.080616999999999939e+00
2.260699835805370650e-01 1.078618999999999994e+00
2.310183752015635139e-01 1.084443000000000046e+00
2.360751096568884100e-01 1.104038999999999993e+00
2.412425341466744866e-01 1.139469000000000065e+00
2.465230998307618715e-01 1.187991000000000019e+00
2.519191833183147544e-01 1.242515999999999954e+00
2.574334553825345373e-01 1.293574000000000002e+00
2.630683822583526066e-01 1.332897999999999916e+00
2.688266710467492326e-01 1.357436000000000087e+00
2.747110108843249798e-01 1.370938999999999908e+00
2.807241335168895180e-01 1.381321999999999939e+00
2.868688920234096495e-01 1.395453999999999972e+00
2.931481028187655768e-01 1.415025999999999895e+00
2.995647922697904919e-01 1.436334999999999917e+00
3.061219491886544297e-01 1.453621000000000052e+00
3.128225983045015424e-01 1.463414999999999910e+00
3.196699982673885665e-01 1.467346999999999957e+00
3.266672524899394969e-01 1.471362999999999976e+00
3.338175913859038335e-01 1.481301999999999897e+00
3.411245032800827026e-01 1.498040000000000038e+00
3.485912903071751723e-01 1.516464000000000034e+00
3.562216425308692980e-01 1.529805000000000081e+00
3.640189144227933826e-01 1.535549000000000053e+00
3.719868599361595973e-01 1.537436000000000025e+00
3.801292743636255911e-01 1.542755000000000098e+00
3.884498326752345854e-01 1.558386000000000049e+00
3.969526737144291051e-01 1.588152000000000008e+00
4.056414997215270768e-01 1.631858000000000031e+00
4.145204868460213854e-01 1.686115000000000030e+00
4.235940173275368759e-01 1.746798999999999991e+00
4.328659535344370757e-01 1.811301000000000050e+00
4.423408678727827614e-01 1.878832000000000058e+00
4.520233696082087693e-01 1.949216000000000060e+00
4.619176604055267865e-01 2.022066999999999837e+00
4.720285331807737017e-01 2.096770999999999940e+00
4.823605567984378673e-01 2.172537000000000162e+00
4.929189725005434508e-01 2.248419000000000167e+00
5.037085542305222985e-01 2.323157000000000139e+00
5.147340034826902722e-01 2.393635999999999875e+00
5.260010193899755659e-01 2.452545999999999893e+00
5.375147682182568332e-01 2.488818999999999892e+00
5.492803329078241870e-01 2.492471999999999799e+00
5.613033013614973088e-01 2.460957000000000061e+00
5.735898580135665448e-01 2.402721000000000107e+00
5.861448258358571417e-01 2.335049999999999848e+00
5.989749143316128732e-01 2.277089000000000141e+00
6.120861303119130570e-01 2.242484999999999840e+00
6.254839682204105245e-01 2.235104000000000202e+00
6.391749019026319312e-01 2.248378000000000210e+00
6.531657310067570110e-01 2.268006000000000189e+00
6.674631727194452191e-01 2.277689000000000075e+00
6.820728740300071591e-01 2.265804999999999847e+00
6.970030263871405118e-01 2.229929999999999968e+00
7.122593364734473020e-01 2.177064000000000110e+00
7.278502433567288765e-01 2.119407999999999959e+00
7.437819826252529687e-01 2.068118000000000123e+00
7.600626595656545526e-01 2.028849999999999820e+00
7.766996323880640540e-01 2.001120999999999928e+00
7.937005574159013976e-01 1.980995999999999979e+00
8.110740810733430006e-01 1.964884999999999993e+00
8.288272757110509703e-01 1.951551999999999953e+00
8.469695429752346350e-01 1.941330000000000000e+00
8.655086161382736787e-01 1.934490999999999961e+00
8.844540397880493732e-01 1.930751000000000106e+00
9.038134601323364326e-01 1.929853000000000041e+00
9.235972635660274488e-01 1.932331999999999939e+00
9.438138195107080852e-01 1.939748000000000028e+00
9.644726842046378312e-01 1.954055000000000097e+00
9.855838648094324972e-01 1.976358000000000059e+00
1.007156856623164121e+00 2.005902999999999992e+00
1.029202594413900052e+00 2.040096999999999827e+00
1.051730412046940843e+00 2.075391999999999904e+00
1.074752242739242414e+00 2.108137000000000150e+00
1.098277132661993116e+00 2.135167000000000037e+00
1.122316821060050707e+00 2.154355999999999938e+00
1.146883687643933891e+00 2.164925000000000210e+00
1.171988078537265165e+00 2.167285999999999824e+00
1.197640647923590596e+00 2.162714999999999943e+00
1.223856887071053556e+00 2.152855999999999881e+00
1.250645645814651763e+00 2.139257999999999882e+00
1.278020601692099190e+00 2.123686999999999880e+00
1.305994514823037633e+00 2.109094999999999942e+00
1.334582502555725414e+00 2.099669000000000008e+00
1.363795059788775355e+00 2.098923000000000094e+00
1.393646643680787944e+00 2.107009000000000132e+00
1.424152486855072564e+00 2.119759999999999867e+00
1.455324450032890349e+00 2.130717000000000194e+00
1.487179029585939727e+00 2.134889999999999954e+00
1.519733742648287977e+00 2.131596000000000046e+00
1.552997595959721311e+00 2.124369000000000174e+00
1.586991746055928854e+00 2.118095999999999979e+00
1.621728568046108876e+00 2.115759999999999863e+00
1.657226002538870313e+00 2.117176000000000169e+00
1.693503044918474698e+00 2.120187000000000044e+00
1.730570880722132499e+00 2.122977000000000114e+00
1.768449794594556090e+00 2.125424999999999898e+00
1.807161419272292235e+00 2.128410000000000135e+00
1.846718657952616915e+00 2.132012000000000018e+00
1.887141395956233536e+00 2.134428999999999910e+00
1.928446905999783967e+00 2.132610999999999812e+00
1.970660801980119947e+00 2.123994000000000160e+00
2.013794492272063863e+00 2.107969000000000204e+00
2.057875696076454375e+00 2.086230000000000029e+00
2.102921167794182811e+00 2.062193999999999861e+00
2.148947875120341244e+00 2.039919999999999956e+00
2.195987491655247315e+00 2.022720000000000073e+00
2.244054377925685628e+00 2.012148999999999965e+00
2.293172994677545429e+00 2.007721000000000089e+00
2.343369202504593130e+00 2.007176999999999989e+00
2.394664687077192156e+00 2.007233999999999963e+00
2.447081854888045971e+00 2.004630999999999830e+00
2.500643915808320461e+00 1.997071999999999958e+00
2.555381505681890708e+00 1.983838999999999908e+00
2.611313778074887182e+00 1.965694000000000052e+00
2.668474113132628389e+00 1.943510000000000071e+00
2.726883526623927079e+00 1.916415999999999897e+00
2.786570957242854973e+00 1.881714000000000109e+00
2.847566896465314912e+00 1.837545999999999902e+00
2.909895098281706893e+00 1.785722999999999949e+00
2.973597428432943612e+00 1.731616999999999962e+00
3.038682427299522981e+00 1.681648999999999949e+00
3.105194680180473732e+00 1.640719999999999956e+00
3.173162659491088000e+00 1.610708000000000029e+00
3.242626267866870915e+00 1.590092999999999979e+00
3.313595350363004233e+00 1.574576999999999893e+00
3.386134456627003964e+00 1.558702000000000032e+00
3.460243531939777739e+00 1.538079999999999892e+00
3.535992871438371044e+00 1.511074999999999946e+00
3.613382523514086397e+00 1.479098999999999942e+00
3.692475841976804229e+00 1.445691000000000059e+00
3.773300128292204736e+00 1.414998999999999896e+00
3.855897402281920350e+00 1.390262000000000109e+00
3.940296625529969621e+00 1.372799000000000103e+00
4.026542971266589888e+00 1.361879999999999979e+00
4.114684485993613805e+00 1.355625000000000080e+00
4.204754736656211023e+00 1.352322999999999942e+00
4.296787721499407020e+00 1.351342999999999961e+00
4.390837200929101236e+00 1.353270999999999891e+00
4.486960891648868355e+00 1.359340999999999910e+00
4.585157844058781684e+00 1.370675000000000088e+00
4.685530612914259763e+00 1.387767999999999891e+00
4.788102522851219511e+00 1.410355999999999943e+00
4.892894538551115780e+00 1.437497999999999942e+00
