# frequency(Hz) HVamp
2.000000000000000042e-02 1.707155999999999896e+00
2.043777802275861116e-02 1.633364000000000038e+00
2.088513892042544867e-02 1.552998000000000101e+00
2.134229185993890415e-02 1.469195999999999946e+00
2.180945121728470465e-02 1.386536999999999908e+00
2.228683671448790371e-02 1.310715999999999992e+00
2.277467095838639488e-02 1.246431999999999984e+00
2.327318386720582041e-02 1.194768999999999970e+00
2.378260869151607032e-02 1.153138999999999914e+00
2.430318396985316209e-02 1.117539000000000060e+00
2.483515418061077798e-02 1.084953000000000056e+00
2.537876860438217572e-02 1.055077999999999960e+00
2.593428185548686538e-02 1.030316000000000010e+00
2.650195524800330604e-02 1.013968999999999898e+00
2.708205410122367304e-02 1.008482000000000101e+00
2.767485116257483238e-02 1.014604999999999979e+00
2.828062296556268368e-02 1.030998999999999999e+00
2.889965516642458918e-02 1.053978000000000081e+00
2.953223712425469966e-02 1.078241999999999923e+00
3.017866585007221089e-02 1.099050000000000082e+00
3.083924344304486698e-02 1.114293999999999896e+00
3.151428172097601316e-02 1.124789000000000039e+00
3.220409460893151193e-02 1.133018000000000081e+00
3.290900679366954434e-02 1.141715999999999953e+00
3.362935008254323843e-02 1.153262000000000009e+00
3.436545982617606604e-02 1.169909000000000088e+00
3.511768145762538679e-02 1.194110000000000005e+00
3.588636982920923035e-02 1.228186000000000000e+00
3.667188287528685281e-02 1.273288999999999893e+00
3.747459035401046190e-02 1.328367000000000075e+00
3.829486888200696326e-02 1.390079999999999982e+00
3.913310161841203338e-02 1.454056000000000015e+00
3.998968266187323539e-02 1.516526000000000041e+00
4.086501260624340881e-02 1.574899999999999967e+00
4.175950326235679244e-02 1.627132000000000023e+00
4.267357455111880221e-02 1.670932000000000084e+00
4.360765235805109941e-02 1.703699999999999992e+00
4.456217573218773653e-02 1.723051000000000110e+00
4.553759360593897382e-02 1.727562000000000042e+00
4.653436264861679494e-02 1.717932999999999932e+00
4.755294901990994583e-02 1.698253999999999930e+00
4.859383060501651364e-02 1.675980000000000025e+00
4.965749734357217948e-02 1.659340999999999955e+00
5.074444382592605690e-02 1.653548000000000018e+00
5.185518671652646766e-02 1.658902000000000099e+00
5.299023919793973553e-02 1.671623000000000081e+00
5.415013688613103116e-02 1.686509000000000036e+00
5.533542508618215922e-02 1.699994999999999923e+00
5.654665825930951795e-02 1.711637999999999993e+00
5.778440269534190765e-02 1.722930000000000073e+00
5.904923992113619846e-02 1.734544000000000086e+00
6.034176368113722960e-02 1.744423999999999975e+00
6.166257977365023624e-02 1.748598000000000097e+00
6.301230579922413588e-02 1.744277999999999995e+00
6.439157495481964699e-02 1.732310000000000016e+00
6.580103648476649802e-02 1.716753999999999891e+00
6.724135160227064090e-02 1.702264999999999917e+00
6.871319291929786632e-02 1.691494000000000053e+00
7.021724865648072689e-02 1.684133000000000102e+00
7.175422799231455373e-02 1.677686000000000011e+00
7.332484622679873165e-02 1.669343000000000021e+00
7.492985067379918929e-02 1.658004999999999951e+00
7.656998328017844413e-02 1.645383000000000040e+00
7.824601847091161577e-02 1.635307999999999984e+00
7.995873489609482687e-02 1.631505999999999901e+00
8.170894587125514252e-02 1.635316999999999910e+00
8.349746848200181870e-02 1.644757000000000025e+00
8.532513483931059017e-02 1.654945000000000110e+00
8.719280666320453066e-02 1.659532999999999925e+00
8.910136197668877545e-02 1.653246999999999911e+00
9.105169441740208758e-02 1.634697000000000067e+00
9.304472101470850909e-02 1.607188999999999979e+00
9.508136492722282784e-02 1.576162999999999981e+00
9.716259003207046441e-02 1.545441000000000065e+00
9.928937600698042876e-02 1.515687999999999924e+00
1.014627169666056788e-01 1.485681000000000029e+00
1.036836198025345573e-01 1.454479999999999995e+00
1.059531470945422049e-01 1.422741000000000033e+00
1.082723426204657002e-01 1.392555999999999905e+00
1.106423073612318730e-01 1.366287000000000029e+00
1.130641434367904014e-01 1.345298000000000105e+00
1.155389888050807612e-01 1.329472999999999905e+00
1.180680199308263012e-01 1.317395000000000094e+00
1.206523964642573915e-01 1.306602999999999959e+00
1.232933427266421494e-01 1.294192999999999927e+00
1.259921091142061633e-01 1.278226000000000084e+00
1.287499385219043613e-01 1.259179000000000048e+00
1.315681276210838024e-01 1.239772000000000096e+00
1.344480149355610776e-01 1.222806999999999977e+00
1.373909270603933253e-01 1.208882999999999930e+00
1.403982677661723133e-01 1.196061999999999959e+00
1.434714465996406174e-01 1.181626999999999983e+00
1.466118729226930095e-01 1.164387000000000061e+00
1.498210387691902012e-01 1.145574000000000092e+00
1.531004603883944215e-01 1.127547000000000077e+00
1.564516759885790365e-01 1.111666000000000043e+00
1.598762174374112610e-01 1.097725999999999980e+00
1.633757347823671657e-01 1.085390999999999995e+00
1.669518482487836186e-01 1.075833000000000039e+00
1.706062493069121222e-01 1.071606000000000058e+00
1.743406480276755433e-01 1.074786999999999937e+00
1.781567686922972404e-01 1.085229999999999917e+00
1.820564109071452219e-01 1.100454999999999961e+00
1.860414236112984399e-01 1.117151999999999923e+00
1.901136708649468487e-01 1.132921000000000067e+00
1.942750635716576912e-01 1.146663999999999906e+00
1.985275213739692568e-01 1.157677000000000067e+00
2.028730886819132551e-01 1.165051999999999977e+00
2.073137384534022021e-01 1.168196999999999930e+00
2.118516148918974384e-01 1.167705999999999911e+00
2.164888283105038391e-01 1.165459000000000023e+00
2.212275340673810209e-01 1.163880000000000026e+00
2.260699835805370650e-01 1.164991000000000110e+00
2.310183752015635139e-01 1.169672000000000045e+00
2.360751096568884100e-01 1.177337000000000078e+00
2.412425341466744866e-01 1.186453999999999898e+00
2.465230998307618715e-01 1.195616999999999930e+00
2.519191833183147544e-01 1.204212000000000060e+00
2.574334553825345373e-01 1.211953000000000058e+00
2.630683822583526066e-01 1.217875000000000041e+00
2.688266710467492326e-01 1.220091000000000037e+00
2.747110108843249798e-01 1.216911999999999994e+00
2.807241335168895180e-01 1.208949000000000051e+00
2.868688920234096495e-01 1.200329999999999897e+00
2.931481028187655768e-01 1.197241999999999917e+00
2.995647922697904919e-01 1.204612000000000016e+00
3.061219491886544297e-01 1.223336999999999897e+00
3.128225983045015424e-01 1.249646999999999952e+00
3.196699982673885665e-01 1.276707999999999954e+00
3.266672524899394969e-01 1.297868999999999939e+00
3.338175913859038335e-01 1.310083000000000109e+00
3.411245032800827026e-01 1.315461999999999909e+00
3.485912903071751723e-01 1.320233999999999908e+00
3.562216425308692980e-01 1.331957999999999975e+00
3.640189144227933826e-01 1.356046000000000085e+00
3.719868599361595973e-01 1.392913000000000068e+00
3.801292743636255911e-01 1.437238000000000016e+00
3.884498326752345854e-01 1.480309000000000097e+00
3.969526737144291051e-01 1.514534999999999965e+00
4.056414997215270768e-01 1.536999000000000004e+00
4.145204868460213854e-01 1.549623999999999890e+00
4.235940173275368759e-01 1.557142000000000026e+00
4.328659535344370757e-01 1.565185000000000048e+00
4.423408678727827614e-01 1.578983000000000025e+00
4.520233696082087693e-01 1.601855000000000029e+00
4.619176604055267865e-01 1.633267000000000024e+00
4.720285331807737017e-01 1.668231000000000019e+00
4.823605567984378673e-01 1.700001000000000095e+00
4.929189725005434508e-01 1.724237000000000020e+00
5.037085542305222985e-01 1.741381000000000068e+00
5.147340034826902722e-01 1.756450000000000067e+00
5.260010193899755659e-01 1.776461000000000068e+00
5.375147682182568332e-01 1.806586999999999943e+00
5.492803329078241870e-01 1.847301000000000082e+00
5.613033013614973088e-01 1.894258999999999915e+00
5.735898580135665448e-01 1.940838000000000063e+00
5.861448258358571417e-01 1.981559000000000070e+00
5.989749143316128732e-01 2.013815000000000133e+00
6.120861303119130570e-01 2.036598999999999826e+00
6.254839682204105245e-01 2.048410000000000064e+00
6.391749019026319312e-01 2.048268999999999895e+00
6.531657310067570110e-01 2.039932999999999996e+00
6.674631727194452191e-01 2.033573000000000075e+00
6.820728740300071591e-01 2.041253000000000206e+00
6.970030263871405118e-01 2.070149999999999935e+00
7.122593364734473020e-01 2.119098000000000148e+00
7.278502433567288765e-01 2.179516000000000009e+00
7.437819826252529687e-01 2.239012999999999920e+00
7.600626595656545526e-01 2.285963000000000189e+00
7.766996323880640540e-01 2.313242999999999938e+00
7.937005574159013976e-01 2.319545999999999886e+00
8.110740810733430006e-01 2.308445999999999998e+00
8.288272757110509703e-01 2.286369000000000096e+00
8.469695429752346350e-01 2.259987999999999886e+00
8.655086161382736787e-01 2.233776999999999902e+00
8.844540397880493732e-01 2.209006000000000025e+00
9.038134601323364326e-01 2.184715999999999880e+00
9.235972635660274488e-01 2.159889000000000170e+00
9.438138195107080852e-01 2.135432000000000219e+00
9.644726842046378312e-01 2.114571999999999896e+00
9.855838648094324972e-01 2.101008999999999904e+00
1.007156856623164121e+00 2.095901000000000014e+00
1.029202594413900052e+00 2.096098000000000017e+00
1.051730412046940843e+00 2.095038999999999874e+00
1.074752242739242414e+00 2.085516000000000147e+00
1.098277132661993116e+00 2.062895000000000145e+00
1.122316821060050707e+00 2.027741999999999933e+00
1.146883687643933891e+00 1.986477000000000048e+00
1.171988078537265165e+00 1.948650999999999911e+00
1.197640647923590596e+00 1.921874000000000082e+00
1.223856887071053556e+00 1.908106999999999998e+00
1.250645645814651763e+00 1.903794999999999904e+00
1.278020601692099190e+00 1.902892000000000028e+00
1.305994514823037633e+00 1.900519999999999987e+00
1.334582502555725414e+00 1.895086999999999966e+00
1.363795059788775355e+00 1.887647999999999993e+00
1.393646643680787944e+00 1.879304000000000086e+00
1.424152486855072564e+00 1.869275000000000020e+00
1.455324450032890349e+00 1.855537999999999910e+00
1.487179029585939727e+00 1.837126999999999954e+00
1.519733742648287977e+00 1.815436999999999967e+00
1.552997595959721311e+00 1.793514000000000053e+00
1.586991746055928854e+00 1.774488999999999983e+00
1.621728568046108876e+00 1.760375999999999941e+00
1.657226002538870313e+00 1.751309999999999922e+00
1.693503044918474698e+00 1.745530000000000026e+00
1.730570880722132499e+00 1.740602999999999900e+00
1.768449794594556090e+00 1.735168999999999961e+00
1.807161419272292235e+00 1.729627999999999943e+00
1.846718657952616915e+00 1.725395999999999930e+00
1.887141395956233536e+00 1.723721999999999976e+00
1.928446905999783967e+00 1.724861999999999895e+00
1.970660801980119947e+00 1.728059000000000012e+00
2.013794492272063863e+00 1.732285999999999992e+00
2.057875696076454375e+00 1.737103999999999981e+00
2.102921167794182811e+00 1.742899999999999894e+00
2.148947875120341244e+00 1.750251999999999919e+00
2.195987491655247315e+00 1.758829999999999893e+00
2.244054377925685628e+00 1.766577000000000064e+00
2.293172994677545429e+00 1.769911000000000012e+00
2.343369202504593130e+00 1.765211000000000086e+00
2.394664687077192156e+00 1.750882000000000049e+00
2.447081854888045971e+00 1.728550000000000031e+00
2.500643915808320461e+00 1.702248999999999901e+00
2.555381505681890708e+00 1.676155999999999979e+00
2.611313778074887182e+00 1.652511000000000063e+00
2.668474113132628389e+00 1.630865999999999927e+00
2.726883526623927079e+00 1.608867000000000047e+00
2.786570957242854973e+00 1.584039999999999893e+00
2.847566896465314912e+00 1.555590999999999946e+00
2.909895098281706893e+00 1.525238000000000094e+00
2.973597428432943612e+00 1.496621999999999897e+00
3.038682427299522981e+00 1.473597000000000046e+00
3.105194680180473732e+00 1.458657000000000092e+00
3.173162659491088000e+00 1.452393999999999963e+00
3.242626267866870915e+00 1.453864999999999963e+00
3.313595350363004233e+00 1.461344999999999894e+00
3.386134456627003964e+00 1.473025999999999947e+00
3.460243531939777739e+00 1.487451000000000079e+00
3.535992871438371044e+00 1.503441000000000027e+00
3.613382523514086397e+00 1.519495999999999958e+00
3.692475841976804229e+00 1.533120000000000038e+00
3.773300128292204736e+00 1.540863000000000094e+00
3.855897402281920350e+00 1.539496999999999893e+00
3.940296625529969621e+00 1.527811000000000030e+00
4.026542971266589888e+00 1.507649000000000017e+00
4.114684485993613805e+00 1.483384999999999954e+00
4.204754736656211023e+00 1.460282999999999998e+00
4.296787721499407020e+00 1.442738000000000076e+00
4.390837200929101236e+00 1.433111999999999941e+00
4.486960891648868355e+00 1.431577000000000099e+00
4.585157844058781684e+00 1.436917999999999918e+00
4.685530612914259763e+00 1.447664000000000062e+00
4.788102522851219511e+00 1.462809000000000026e+00
4.892894538551115780e+00 1.481713000000000058e+00
