# frequency(Hz) HVamp
2.000000000000000042e-02 1.310054000000000052e+00
2.043777802275861116e-02 1.289927000000000046e+00
2.088513892042544867e-02 1.278528000000000109e+00
2.134229185993890415e-02 1.280747000000000080e+00
2.180945121728470465e-02 1.301301999999999959e+00
2.228683671448790371e-02 1.341668000000000083e+00
2.277467095838639488e-02 1.399026000000000103e+00
2.327318386720582041e-02 1.467478000000000060e+00
2.378260869151607032e-02 1.539927999999999964e+00
2.430318396985316209e-02 1.610303000000000040e+00
2.483515418061077798e-02 1.675750000000000073e+00
2.537876860438217572e-02 1.736345999999999945e+00
2.593428185548686538e-02 1.792969999999999953e+00
2.650195524800330604e-02 1.845952999999999955e+00
2.708205410122367304e-02 1.894859000000000071e+00
2.767485116257483238e-02 1.938342000000000009e+00
2.828062296556268368e-02 1.974364000000000008e+00
2.889965516642458918e-02 2.001542999999999850e+00
2.953223712425469966e-02 2.019833000000000212e+00
3.017866585007221089e-02 2.028995000000000104e+00
3.083924344304486698e-02 2.027457000000000065e+00
3.151428172097601316e-02 2.013907000000000114e+00
3.220409460893151193e-02 1.990019999999999900e+00
3.290900679366954434e-02 1.961319000000000035e+00
3.362935008254323843e-02 1.935602000000000045e+00
3.436545982617606604e-02 1.920902000000000109e+00
3.511768145762538679e-02 1.924161999999999928e+00
3.588636982920923035e-02 1.950463999999999976e+00
3.667188287528685281e-02 2.000770000000000159e+00
3.747459035401046190e-02 2.067959999999999798e+00
3.829486888200696326e-02 2.136864000000000097e+00
3.913310161841203338e-02 2.189270000000000049e+00
3.998968266187323539e-02 2.208722999999999992e+00
4.086501260624340881e-02 2.183670000000000222e+00
4.175950326235679244e-02 2.109478999999999882e+00
4.267357455111880221e-02 1.989614999999999911e+00
4.360765235805109941e-02 1.836540000000000061e+00
4.456217573218773653e-02 1.670630000000000059e+00
4.553759360593897382e-02 1.513938999999999924e+00
4.653436264861679494e-02 1.381539000000000073e+00
4.755294901990994583e-02 1.277992000000000017e+00
4.859383060501651364e-02 1.199929000000000023e+00
4.965749734357217948e-02 1.139915999999999929e+00
5.074444382592605690e-02 1.091472999999999915e+00
5.185518671652646766e-02 1.051549999999999985e+00
5.299023919793973553e-02 1.018536000000000108e+00
5.415013688613103116e-02 9.912300000000000555e-01
5.533542508618215922e-02 9.694559999999999844e-01
5.654665825930951795e-02 9.535730000000000040e-01
5.778440269534190765e-02 9.429520000000000124e-01
5.904923992113619846e-02 9.348009999999999931e-01
6.034176368113722960e-02 9.249840000000000284e-01
6.166257977365023624e-02 9.109939999999999705e-01
6.301230579922413588e-02 8.930029999999999912e-01
6.439157495481964699e-02 8.729179999999999717e-01
6.580103648476649802e-02 8.537569999999999881e-01
6.724135160227064090e-02 8.389090000000000158e-01
6.871319291929786632e-02 8.310189999999999522e-01
7.021724865648072689e-02 8.309320000000000039e-01
7.175422799231455373e-02 8.373779999999999557e-01
7.332484622679873165e-02 8.478449999999999598e-01
7.492985067379918929e-02 8.601940000000000142e-01
7.656998328017844413e-02 8.738200000000000411e-01
7.824601847091161577e-02 8.890500000000000069e-01
7.995873489609482687e-02 9.057070000000000398e-01
8.170894587125514252e-02 9.227360000000000007e-01
8.349746848200181870e-02 9.386379999999999724e-01
8.532513483931059017e-02 9.518450000000000522e-01
8.719280666320453066e-02 9.610790000000000166e-01
8.910136197668877545e-02 9.662129999999999885e-01
9.105169441740208758e-02 9.691149999999999487e-01
9.304472101470850909e-02 9.727170000000000538e-01
9.508136492722282784e-02 9.788099999999999579e-01
9.716259003207046441e-02 9.873349999999999627e-01
9.928937600698042876e-02 9.971630000000000216e-01
1.014627169666056788e-01 1.006807999999999925e+00
1.036836198025345573e-01 1.014399000000000051e+00
1.059531470945422049e-01 1.017594000000000110e+00
1.082723426204657002e-01 1.014569999999999972e+00
1.106423073612318730e-01 1.005513000000000101e+00
1.130641434367904014e-01 9.929310000000000080e-01
1.155389888050807612e-01 9.803779999999999717e-01
1.180680199308263012e-01 9.705350000000000366e-01
1.206523964642573915e-01 9.639320000000000110e-01
1.232933427266421494e-01 9.590680000000000316e-01
1.259921091142061633e-01 9.538529999999999509e-01
1.287499385219043613e-01 9.474150000000000071e-01
1.315681276210838024e-01 9.409729999999999484e-01
1.344480149355610776e-01 9.370910000000000073e-01
1.373909270603933253e-01 9.378959999999999519e-01
1.403982677661723133e-01 9.436839999999999673e-01
1.434714465996406174e-01 9.531330000000000080e-01
1.466118729226930095e-01 9.647520000000000540e-01
1.498210387691902012e-01 9.778860000000000330e-01
1.531004603883944215e-01 9.923300000000000454e-01
1.564516759885790365e-01 1.007298000000000027e+00
1.598762174374112610e-01 1.020917000000000074e+00
1.633757347823671657e-01 1.030613999999999919e+00
1.669518482487836186e-01 1.034021000000000079e+00
1.706062493069121222e-01 1.029859000000000080e+00
1.743406480276755433e-01 1.018327999999999900e+00
1.781567686922972404e-01 1.000890000000000057e+00
1.820564109071452219e-01 9.798149999999999915e-01
1.860414236112984399e-01 9.577510000000000190e-01
1.901136708649468487e-01 9.371610000000000218e-01
1.942750635716576912e-01 9.196450000000000458e-01
1.985275213739692568e-01 9.056110000000000548e-01
2.028730886819132551e-01 8.946340000000000403e-01
2.073137384534022021e-01 8.862109999999999710e-01
2.118516148918974384e-01 8.801120000000000054e-01
2.164888283105038391e-01 8.760299999999999754e-01
2.212275340673810209e-01 8.729660000000000197e-01
2.260699835805370650e-01 8.688360000000000527e-01
2.310183752015635139e-01 8.607810000000000183e-01
2.360751096568884100e-01 8.464420000000000277e-01
2.412425341466744866e-01 8.254150000000000098e-01
2.465230998307618715e-01 7.994799999999999685e-01
2.519191833183147544e-01 7.715149999999999508e-01
2.574334553825345373e-01 7.443189999999999529e-01
2.630683822583526066e-01 7.201239999999999863e-01
2.688266710467492326e-01 7.005759999999999765e-01
2.747110108843249798e-01 6.867119999999999891e-01
2.807241335168895180e-01 6.787140000000000395e-01
2.868688920234096495e-01 6.757480000000000153e-01
2.931481028187655768e-01 6.763799999999999812e-01
2.995647922697904919e-01 6.793449999999999767e-01
3.061219491886544297e-01 6.840150000000000396e-01
3.128225983045015424e-01 6.902420000000000222e-01
3.196699982673885665e-01 6.976689999999999836e-01
3.266672524899394969e-01 7.051119999999999610e-01
3.338175913859038335e-01 7.107069999999999776e-01
3.411245032800827026e-01 7.128079999999999972e-01
3.485912903071751723e-01 7.108499999999999819e-01
3.562216425308692980e-01 7.053449999999999998e-01
3.640189144227933826e-01 6.972249999999999837e-01
3.719868599361595973e-01 6.872709999999999653e-01
3.801292743636255911e-01 6.760300000000000198e-01
3.884498326752345854e-01 6.641359999999999486e-01
3.969526737144291051e-01 6.526469999999999771e-01
4.056414997215270768e-01 6.429000000000000270e-01
4.145204868460213854e-01 6.358239999999999448e-01
4.235940173275368759e-01 6.312600000000000433e-01
4.328659535344370757e-01 6.278869999999999729e-01
4.423408678727827614e-01 6.238059999999999716e-01
4.520233696082087693e-01 6.174979999999999913e-01
4.619176604055267865e-01 6.085800000000000098e-01
4.720285331807737017e-01 5.978489999999999638e-01
4.823605567984378673e-01 5.865650000000000031e-01
4.929189725005434508e-01 5.753789999999999738e-01
5.037085542305222985e-01 5.638069999999999471e-01
5.147340034826902722e-01 5.508669999999999956e-01
5.260010193899755659e-01 5.363759999999999639e-01
5.375147682182568332e-01 5.215990000000000348e-01
5.492803329078241870e-01 5.086460000000000425e-01
5.613033013614973088e-01 4.991470000000000073e-01
5.735898580135665448e-01 4.934479999999999977e-01
5.861448258358571417e-01 4.909359999999999835e-01
5.989749143316128732e-01 4.910169999999999813e-01
6.120861303119130570e-01 4.936599999999999877e-01
6.254839682204105245e-01 4.989620000000000166e-01
6.391749019026319312e-01 5.063100000000000378e-01
6.531657310067570110e-01 5.141040000000000054e-01
6.674631727194452191e-01 5.204440000000000177e-01
6.820728740300071591e-01 5.242400000000000393e-01
6.970030263871405118e-01 5.257859999999999756e-01
7.122593364734473020e-01 5.264849999999999808e-01
7.278502433567288765e-01 5.281949999999999701e-01
7.437819826252529687e-01 5.326650000000000551e-01
7.600626595656545526e-01 5.411770000000000191e-01
7.766996323880640540e-01 5.543890000000000207e-01
7.937005574159013976e-01 5.721760000000000179e-01
8.110740810733430006e-01 5.932770000000000543e-01
8.288272757110509703e-01 6.152020000000000266e-01
8.469695429752346350e-01 6.352510000000000101e-01
8.655086161382736787e-01 6.521869999999999612e-01
8.844540397880493732e-01 6.669479999999999853e-01
9.038134601323364326e-01 6.816579999999999862e-01
9.235972635660274488e-01 6.981039999999999468e-01
9.438138195107080852e-01 7.172809999999999464e-01
9.644726842046378312e-01 7.400630000000000264e-01
9.855838648094324972e-01 7.678660000000000485e-01
1.007156856623164121e+00 8.025640000000000551e-01
1.029202594413900052e+00 8.457099999999999618e-01
1.051730412046940843e+00 8.976910000000000167e-01
1.074752242739242414e+00 9.576000000000000068e-01
1.098277132661993116e+00 1.023981999999999948e+00
1.122316821060050707e+00 1.095517999999999992e+00
1.146883687643933891e+00 1.170727000000000073e+00
1.171988078537265165e+00 1.247142999999999891e+00
1.197640647923590596e+00 1.321207000000000020e+00
1.223856887071053556e+00 1.389021000000000061e+00
1.250645645814651763e+00 1.447171999999999903e+00
1.278020601692099190e+00 1.493238000000000065e+00
1.305994514823037633e+00 1.526159000000000043e+00
1.334582502555725414e+00 1.546383999999999981e+00
1.363795059788775355e+00 1.555361999999999911e+00
1.393646643680787944e+00 1.554947000000000079e+00
1.424152486855072564e+00 1.547957000000000027e+00
1.455324450032890349e+00 1.539527000000000090e+00
1.487179029585939727e+00 1.537239000000000022e+00
1.519733742648287977e+00 1.549080000000000013e+00
1.552997595959721311e+00 1.580605999999999955e+00
1.586991746055928854e+00 1.633054000000000006e+00
1.621728568046108876e+00 1.703084999999999960e+00
1.657226002538870313e+00 1.784265999999999908e+00
1.693503044918474698e+00 1.870020999999999933e+00
1.730570880722132499e+00 1.956304999999999961e+00
1.768449794594556090e+00 2.041437999999999864e+00
1.807161419272292235e+00 2.123210999999999959e+00
1.846718657952616915e+00 2.196579999999999977e+00
1.887141395956233536e+00 2.253922999999999899e+00
1.928446905999783967e+00 2.287209999999999965e+00
1.970660801980119947e+00 2.290718000000000032e+00
2.013794492272063863e+00 2.263180999999999887e+00
2.057875696076454375e+00 2.208448999999999884e+00
2.102921167794182811e+00 2.134371999999999936e+00
2.148947875120341244e+00 2.050593000000000110e+00
2.195987491655247315e+00 1.966442000000000023e+00
2.244054377925685628e+00 1.889370999999999912e+00
2.293172994677545429e+00 1.823730000000000073e+00
2.343369202504593130e+00 1.770107000000000097e+00
2.394664687077192156e+00 1.725638000000000005e+00
2.447081854888045971e+00 1.685416999999999943e+00
2.500643915808320461e+00 1.644476999999999967e+00
2.555381505681890708e+00 1.599590999999999985e+00
2.611313778074887182e+00 1.550445000000000073e+00
2.668474113132628389e+00 1.499838999999999922e+00
2.726883526623927079e+00 1.452641999999999989e+00
2.786570957242854973e+00 1.413848999999999911e+00
2.847566896465314912e+00 1.386576000000000031e+00
2.909895098281706893e+00 1.370837000000000083e+00
2.973597428432943612e+00 1.363445999999999936e+00
3.038682427299522981e+00 1.358805999999999958e+00
3.105194680180473732e+00 1.350525999999999893e+00
3.173162659491088000e+00 1.333544000000000063e+00
3.242626267866870915e+00 1.305855999999999906e+00
3.313595350363004233e+00 1.269171999999999967e+00
3.386134456627003964e+00 1.228269999999999973e+00
3.460243531939777739e+00 1.189306999999999892e+00
3.535992871438371044e+00 1.157925000000000093e+00
3.613382523514086397e+00 1.137771000000000088e+00
3.692475841976804229e+00 1.129725000000000090e+00
3.773300128292204736e+00 1.131858999999999948e+00
3.855897402281920350e+00 1.140169999999999906e+00
3.940296625529969621e+00 1.149926999999999921e+00
4.026542971266589888e+00 1.157218999999999998e+00
4.114684485993613805e+00 1.160091999999999901e+00
4.204754736656211023e+00 1.158814000000000011e+00
4.296787721499407020e+00 1.155238999999999905e+00
4.390837200929101236e+00 1.151594000000000007e+00
4.486960891648868355e+00 1.149364000000000052e+00
4.585157844058781684e+00 1.148783000000000110e+00
4.685530612914259763e+00 1.148918000000000106e+00
4.788102522851219511e+00 1.148052999999999990e+00
4.892894538551115780e+00 1.144230000000000080e+00
