# frequency(Hz) HVamp
2.000000000000000042e-02 1.464590000000000058e+00
2.043777802275861116e-02 1.488861999999999908e+00
2.088513892042544867e-02 1.511722000000000010e+00
2.134229185993890415e-02 1.529935999999999963e+00
2.180945121728470465e-02 1.539987999999999913e+00
2.228683671448790371e-02 1.539851999999999999e+00
2.277467095838639488e-02 1.529832999999999998e+00
2.327318386720582041e-02 1.511708000000000052e+00
2.378260869151607032e-02 1.487786999999999971e+00
2.430318396985316209e-02 1.461252999999999913e+00
2.483515418061077798e-02 1.436314000000000091e+00
2.537876860438217572e-02 1.416614999999999958e+00
2.593428185548686538e-02 1.403173999999999921e+00
2.650195524800330604e-02 1.393756999999999913e+00
2.708205410122367304e-02 1.383874999999999966e+00
2.767485116257483238e-02 1.368827000000000016e+00
2.828062296556268368e-02 1.346168999999999949e+00
2.889965516642458918e-02 1.317082000000000086e+00
2.953223712425469966e-02 1.285252999999999979e+00
3.017866585007221089e-02 1.254405999999999910e+00
3.083924344304486698e-02 1.226569999999999938e+00
3.151428172097601316e-02 1.201991999999999949e+00
3.220409460893151193e-02 1.180109999999999992e+00
3.290900679366954434e-02 1.160533000000000037e+00
3.362935008254323843e-02 1.143556999999999935e+00
3.436545982617606604e-02 1.130103000000000080e+00
3.511768145762538679e-02 1.120983999999999980e+00
3.588636982920923035e-02 1.116411000000000042e+00
3.667188287528685281e-02 1.116697999999999968e+00
3.747459035401046190e-02 1.123083000000000053e+00
3.829486888200696326e-02 1.137051999999999952e+00
3.913310161841203338e-02 1.158779000000000003e+00
3.998968266187323539e-02 1.186310999999999893e+00
4.086501260624340881e-02 1.215956999999999955e+00
4.175950326235679244e-02 1.243382999999999905e+00
4.267357455111880221e-02 1.265242999999999896e+00
4.360765235805109941e-02 1.281080999999999914e+00
4.456217573218773653e-02 1.294022000000000006e+00
4.553759360593897382e-02 1.308780000000000054e+00
4.653436264861679494e-02 1.328275000000000095e+00
4.755294901990994583e-02 1.351903000000000077e+00
4.859383060501651364e-02 1.376632999999999996e+00
4.965749734357217948e-02 1.398913999999999991e+00
5.074444382592605690e-02 1.416207999999999911e+00
5.185518671652646766e-02 1.428616000000000108e+00
5.299023919793973553e-02 1.438264999999999905e+00
5.415013688613103116e-02 1.447216000000000058e+00
5.533542508618215922e-02 1.456204999999999972e+00
5.654665825930951795e-02 1.464452000000000087e+00
5.778440269534190765e-02 1.470409999999999995e+00
5.904923992113619846e-02 1.473003999999999980e+00
6.034176368113722960e-02 1.472617000000000065e+00
6.166257977365023624e-02 1.471694000000000058e+00
6.301230579922413588e-02 1.474021000000000026e+00
6.439157495481964699e-02 1.482139000000000095e+00
6.580103648476649802e-02 1.495357000000000047e+00
6.724135160227064090e-02 1.509862000000000037e+00
6.871319291929786632e-02 1.520426000000000055e+00
7.021724865648072689e-02 1.522728000000000081e+00
7.175422799231455373e-02 1.514864999999999906e+00
7.332484622679873165e-02 1.497293999999999903e+00
7.492985067379918929e-02 1.471926000000000068e+00
7.656998328017844413e-02 1.441626000000000074e+00
7.824601847091161577e-02 1.409769999999999968e+00
7.995873489609482687e-02 1.379094999999999960e+00
8.170894587125514252e-02 1.350934999999999997e+00
8.349746848200181870e-02 1.325620000000000021e+00
8.532513483931059017e-02 1.303245999999999905e+00
8.719280666320453066e-02 1.283808000000000060e+00
8.910136197668877545e-02 1.266624999999999890e+00
9.105169441740208758e-02 1.249973000000000001e+00
9.304472101470850909e-02 1.231826000000000088e+00
9.508136492722282784e-02 1.211138000000000048e+00
9.716259003207046441e-02 1.188838000000000061e+00
9.928937600698042876e-02 1.167465999999999893e+00
1.014627169666056788e-01 1.149041999999999897e+00
1.036836198025345573e-01 1.133210999999999968e+00
1.059531470945422049e-01 1.117966999999999933e+00
1.082723426204657002e-01 1.101933999999999969e+00
1.106423073612318730e-01 1.085363000000000078e+00
1.130641434367904014e-01 1.069517999999999969e+00
1.155389888050807612e-01 1.055784000000000056e+00
1.180680199308263012e-01 1.045017000000000085e+00
1.206523964642573915e-01 1.037136000000000058e+00
1.232933427266421494e-01 1.031266000000000016e+00
1.259921091142061633e-01 1.026286999999999949e+00
1.287499385219043613e-01 1.021485999999999894e+00
1.315681276210838024e-01 1.017039999999999944e+00
1.344480149355610776e-01 1.014054000000000011e+00
1.373909270603933253e-01 1.014029999999999987e+00
1.403982677661723133e-01 1.017948000000000075e+00
1.434714465996406174e-01 1.025258000000000003e+00
1.466118729226930095e-01 1.033617000000000008e+00
1.498210387691902012e-01 1.040062000000000042e+00
1.531004603883944215e-01 1.042837000000000014e+00
1.564516759885790365e-01 1.042354000000000003e+00
1.598762174374112610e-01 1.040756999999999932e+00
1.633757347823671657e-01 1.040443999999999924e+00
1.669518482487836186e-01 1.042397000000000018e+00
1.706062493069121222e-01 1.045655999999999919e+00
1.743406480276755433e-01 1.048504000000000103e+00
1.781567686922972404e-01 1.050141999999999909e+00
1.820564109071452219e-01 1.051074000000000064e+00
1.860414236112984399e-01 1.052322999999999897e+00
1.901136708649468487e-01 1.054913999999999907e+00
1.942750635716576912e-01 1.059971999999999914e+00
1.985275213739692568e-01 1.068594999999999962e+00
2.028730886819132551e-01 1.081264000000000003e+00
2.073137384534022021e-01 1.097514000000000101e+00
2.118516148918974384e-01 1.116335999999999995e+00
2.164888283105038391e-01 1.136840000000000073e+00
2.212275340673810209e-01 1.158525000000000027e+00
2.260699835805370650e-01 1.180921000000000110e+00
2.310183752015635139e-01 1.203019999999999978e+00
2.360751096568884100e-01 1.223476000000000008e+00
2.412425341466744866e-01 1.241778999999999966e+00
2.465230998307618715e-01 1.259058000000000010e+00
2.519191833183147544e-01 1.277435000000000098e+00
2.574334553825345373e-01 1.298459999999999948e+00
2.630683822583526066e-01 1.321847999999999912e+00
2.688266710467492326e-01 1.345409999999999995e+00
2.747110108843249798e-01 1.366103999999999985e+00
2.807241335168895180e-01 1.381183000000000050e+00
2.868688920234096495e-01 1.388857000000000008e+00
2.931481028187655768e-01 1.388752999999999904e+00
2.995647922697904919e-01 1.382052999999999976e+00
3.061219491886544297e-01 1.371005999999999947e+00
3.128225983045015424e-01 1.358266999999999891e+00
3.196699982673885665e-01 1.346465000000000023e+00
3.266672524899394969e-01 1.337658000000000014e+00
3.338175913859038335e-01 1.332640999999999964e+00
3.411245032800827026e-01 1.330980000000000052e+00
3.485912903071751723e-01 1.332176000000000027e+00
3.562216425308692980e-01 1.336732000000000031e+00
3.640189144227933826e-01 1.345785999999999927e+00
3.719868599361595973e-01 1.359949999999999992e+00
3.801292743636255911e-01 1.378714999999999913e+00
3.884498326752345854e-01 1.400484000000000062e+00
3.969526737144291051e-01 1.422720999999999902e+00
4.056414997215270768e-01 1.442731999999999903e+00
4.145204868460213854e-01 1.459114999999999940e+00
4.235940173275368759e-01 1.472714999999999996e+00
4.328659535344370757e-01 1.486158000000000090e+00
4.423408678727827614e-01 1.502161999999999997e+00
4.520233696082087693e-01 1.522043000000000035e+00
4.619176604055267865e-01 1.545833000000000013e+00
4.720285331807737017e-01 1.573334000000000010e+00
4.823605567984378673e-01 1.604707000000000106e+00
4.929189725005434508e-01 1.640044999999999975e+00
5.037085542305222985e-01 1.678048999999999902e+00
5.147340034826902722e-01 1.715157999999999960e+00
5.260010193899755659e-01 1.746887999999999996e+00
5.375147682182568332e-01 1.770599999999999952e+00
5.492803329078241870e-01 1.787168000000000090e+00
5.613033013614973088e-01 1.800159999999999982e+00
5.735898580135665448e-01 1.813029999999999919e+00
5.861448258358571417e-01 1.826170000000000071e+00
5.989749143316128732e-01 1.836081999999999992e+00
6.120861303119130570e-01 1.837604999999999933e+00
6.254839682204105245e-01 1.827571000000000057e+00
6.391749019026319312e-01 1.807066000000000061e+00
6.531657310067570110e-01 1.780788999999999955e+00
6.674631727194452191e-01 1.754456999999999933e+00
6.820728740300071591e-01 1.732280999999999960e+00
6.970030263871405118e-01 1.715946999999999889e+00
7.122593364734473020e-01 1.705119000000000051e+00
7.278502433567288765e-01 1.698506000000000071e+00
7.437819826252529687e-01 1.694749999999999979e+00
7.600626595656545526e-01 1.693006000000000011e+00
7.766996323880640540e-01 1.693017999999999912e+00
7.937005574159013976e-01 1.694679999999999964e+00
8.110740810733430006e-01 1.697589000000000015e+00
8.288272757110509703e-01 1.701044000000000000e+00
8.469695429752346350e-01 1.704291999999999918e+00
8.655086161382736787e-01 1.706493000000000038e+00
8.844540397880493732e-01 1.706447999999999965e+00
9.038134601323364326e-01 1.702730999999999995e+00
9.235972635660274488e-01 1.694314000000000098e+00
9.438138195107080852e-01 1.681173999999999946e+00
9.644726842046378312e-01 1.664449000000000067e+00
9.855838648094324972e-01 1.646117999999999970e+00
1.007156856623164121e+00 1.628460000000000019e+00
1.029202594413900052e+00 1.613523000000000041e+00
1.051730412046940843e+00 1.602710000000000079e+00
1.074752242739242414e+00 1.596484000000000014e+00
1.098277132661993116e+00 1.593968000000000051e+00
1.122316821060050707e+00 1.592708999999999930e+00
1.146883687643933891e+00 1.589269000000000043e+00
1.171988078537265165e+00 1.580821000000000032e+00
1.197640647923590596e+00 1.566907999999999967e+00
1.223856887071053556e+00 1.549968999999999930e+00
1.250645645814651763e+00 1.534013999999999989e+00
1.278020601692099190e+00 1.522332000000000019e+00
1.305994514823037633e+00 1.515749000000000013e+00
1.334582502555725414e+00 1.512172000000000072e+00
1.363795059788775355e+00 1.507382000000000000e+00
1.393646643680787944e+00 1.497028999999999943e+00
1.424152486855072564e+00 1.479122000000000048e+00
1.455324450032890349e+00 1.455443000000000042e+00
1.487179029585939727e+00 1.430852000000000013e+00
1.519733742648287977e+00 1.410971999999999893e+00
1.552997595959721311e+00 1.399766000000000066e+00
1.586991746055928854e+00 1.398238000000000092e+00
1.621728568046108876e+00 1.404616000000000087e+00
1.657226002538870313e+00 1.415599000000000052e+00
1.693503044918474698e+00 1.427855000000000096e+00
1.730570880722132499e+00 1.438998999999999917e+00
1.768449794594556090e+00 1.447686999999999946e+00
1.807161419272292235e+00 1.453171999999999908e+00
1.846718657952616915e+00 1.455044000000000004e+00
1.887141395956233536e+00 1.453313000000000077e+00
1.928446905999783967e+00 1.448484000000000105e+00
1.970660801980119947e+00 1.441505999999999954e+00
2.013794492272063863e+00 1.433616999999999919e+00
2.057875696076454375e+00 1.426155000000000062e+00
2.102921167794182811e+00 1.420355999999999952e+00
2.148947875120341244e+00 1.417116000000000042e+00
2.195987491655247315e+00 1.416651000000000105e+00
2.244054377925685628e+00 1.418147999999999964e+00
2.293172994677545429e+00 1.419627999999999890e+00
2.343369202504593130e+00 1.418414999999999981e+00
2.394664687077192156e+00 1.412319000000000102e+00
2.447081854888045971e+00 1.400735999999999981e+00
2.500643915808320461e+00 1.384741999999999917e+00
2.555381505681890708e+00 1.366362999999999994e+00
2.611313778074887182e+00 1.347644000000000064e+00
2.668474113132628389e+00 1.329752000000000045e+00
2.726883526623927079e+00 1.312435999999999936e+00
2.786570957242854973e+00 1.294357999999999898e+00
2.847566896465314912e+00 1.274284999999999890e+00
2.909895098281706893e+00 1.252372000000000041e+00
2.973597428432943612e+00 1.230555000000000065e+00
3.038682427299522981e+00 1.211772999999999989e+00
3.105194680180473732e+00 1.198736999999999941e+00
3.173162659491088000e+00 1.192900000000000071e+00
3.242626267866870915e+00 1.193839000000000095e+00
3.313595350363004233e+00 1.199203999999999937e+00
3.386134456627003964e+00 1.205403999999999920e+00
3.460243531939777739e+00 1.209039999999999893e+00
3.535992871438371044e+00 1.208266999999999980e+00
3.613382523514086397e+00 1.203163999999999900e+00
3.692475841976804229e+00 1.195000000000000062e+00
3.773300128292204736e+00 1.185238000000000014e+00
3.855897402281920350e+00 1.174938000000000038e+00
3.940296625529969621e+00 1.164617000000000013e+00
4.026542971266589888e+00 1.154565999999999981e+00
4.114684485993613805e+00 1.145389999999999908e+00
4.204754736656211023e+00 1.138242999999999894e+00
4.296787721499407020e+00 1.134576999999999947e+00
4.390837200929101236e+00 1.135712000000000055e+00
4.486960891648868355e+00 1.142371999999999943e+00
4.585157844058781684e+00 1.154422999999999977e+00
4.685530612914259763e+00 1.171040999999999999e+00
4.788102522851219511e+00 1.191162999999999972e+00
4.892894538551115780e+00 1.213772000000000073e+00
