# frequency(Hz) HVamp
2.000000000000000042e-02 1.817185000000000050e+00
2.043777802275861116e-02 1.788875999999999911e+00
2.088513892042544867e-02 1.765935000000000032e+00
2.134229185993890415e-02 1.748232000000000008e+00
2.180945121728470465e-02 1.735357999999999956e+00
2.228683671448790371e-02 1.723748999999999976e+00
2.277467095838639488e-02 1.708023000000000069e+00
2.327318386720582041e-02 1.686056999999999917e+00
2.378260869151607032e-02 1.661267999999999967e+00
2.430318396985316209e-02 1.638296999999999892e+00
2.483515418061077798e-02 1.618095000000000061e+00
2.537876860438217572e-02 1.596764999999999990e+00
2.593428185548686538e-02 1.568351000000000051e+00
2.650195524800330604e-02 1.529050999999999938e+00
2.708205410122367304e-02 1.479576000000000002e+00
2.767485116257483238e-02 1.424379999999999979e+00
2.828062296556268368e-02 1.369011999999999896e+00
2.889965516642458918e-02 1.317973999999999979e+00
2.953223712425469966e-02 1.273911000000000016e+00
3.017866585007221089e-02 1.237484999999999946e+00
3.083924344304486698e-02 1.208026000000000044e+00
3.151428172097601316e-02 1.184628000000000014e+00
3.220409460893151193e-02 1.166549999999999976e+00
3.290900679366954434e-02 1.153097000000000039e+00
3.362935008254323843e-02 1.143634000000000039e+00
3.436545982617606604e-02 1.137413000000000007e+00
3.511768145762538679e-02 1.132832999999999979e+00
3.588636982920923035e-02 1.126687999999999912e+00
3.667188287528685281e-02 1.114449000000000023e+00
3.747459035401046190e-02 1.092248000000000108e+00
3.829486888200696326e-02 1.059433999999999987e+00
3.913310161841203338e-02 1.020140000000000047e+00
3.998968266187323539e-02 9.828130000000000477e-01
4.086501260624340881e-02 9.575799999999999867e-01
4.175950326235679244e-02 9.531239999999999712e-01
4.267357455111880221e-02 9.744099999999999984e-01
4.360765235805109941e-02 1.021338000000000079e+00
4.456217573218773653e-02 1.088006999999999946e+00
4.553759360593897382e-02 1.162717000000000001e+00
4.653436264861679494e-02 1.230042000000000080e+00
4.755294901990994583e-02 1.277541999999999955e+00
4.859383060501651364e-02 1.303493999999999930e+00
4.965749734357217948e-02 1.315994000000000108e+00
5.074444382592605690e-02 1.324918000000000040e+00
5.185518671652646766e-02 1.335911000000000071e+00
5.299023919793973553e-02 1.349296999999999969e+00
5.415013688613103116e-02 1.362859999999999960e+00
5.533542508618215922e-02 1.375332999999999917e+00
5.654665825930951795e-02 1.387316999999999911e+00
5.778440269534190765e-02 1.398994000000000071e+00
5.904923992113619846e-02 1.407135999999999942e+00
6.034176368113722960e-02 1.405637999999999943e+00
6.166257977365023624e-02 1.390865999999999936e+00
6.301230579922413588e-02 1.365339999999999998e+00
6.439157495481964699e-02 1.336127000000000065e+00
6.580103648476649802e-02 1.311158999999999963e+00
6.724135160227064090e-02 1.295514000000000054e+00
6.871319291929786632e-02 1.289319000000000104e+00
7.021724865648072689e-02 1.288672999999999957e+00
7.175422799231455373e-02 1.289004999999999956e+00
7.332484622679873165e-02 1.287981000000000043e+00
7.492985067379918929e-02 1.285643000000000091e+00
7.656998328017844413e-02 1.282675999999999927e+00
7.824601847091161577e-02 1.278307000000000082e+00
7.995873489609482687e-02 1.269727000000000050e+00
8.170894587125514252e-02 1.254621999999999904e+00
8.349746848200181870e-02 1.234186999999999923e+00
8.532513483931059017e-02 1.213292999999999955e+00
8.719280666320453066e-02 1.198234999999999939e+00
8.910136197668877545e-02 1.194688999999999890e+00
9.105169441740208758e-02 1.206757000000000080e+00
9.304472101470850909e-02 1.235811999999999911e+00
9.508136492722282784e-02 1.278966999999999965e+00
9.716259003207046441e-02 1.328311999999999937e+00
9.928937600698042876e-02 1.371742000000000017e+00
1.014627169666056788e-01 1.397658999999999985e+00
1.036836198025345573e-01 1.402466999999999908e+00
1.059531470945422049e-01 1.394052999999999987e+00
1.082723426204657002e-01 1.387034000000000100e+00
1.106423073612318730e-01 1.393898000000000081e+00
1.130641434367904014e-01 1.419389000000000012e+00
1.155389888050807612e-01 1.461092999999999975e+00
1.180680199308263012e-01 1.513827999999999951e+00
1.206523964642573915e-01 1.573444999999999983e+00
1.232933427266421494e-01 1.637733000000000105e+00
1.259921091142061633e-01 1.704963000000000006e+00
1.287499385219043613e-01 1.772350000000000092e+00
1.315681276210838024e-01 1.836923000000000084e+00
1.344480149355610776e-01 1.898311999999999999e+00
1.373909270603933253e-01 1.959283000000000108e+00
1.403982677661723133e-01 2.022634000000000043e+00
1.434714465996406174e-01 2.088241000000000014e+00
1.466118729226930095e-01 2.153417000000000137e+00
1.498210387691902012e-01 2.215376000000000012e+00
1.531004603883944215e-01 2.273191999999999879e+00
1.564516759885790365e-01 2.328282999999999880e+00
1.598762174374112610e-01 2.383179999999999854e+00
1.633757347823671657e-01 2.438778999999999808e+00
1.669518482487836186e-01 2.492191000000000045e+00
1.706062493069121222e-01 2.538447999999999816e+00
1.743406480276755433e-01 2.574186000000000085e+00
1.781567686922972404e-01 2.597462999999999855e+00
1.820564109071452219e-01 2.605211000000000165e+00
1.860414236112984399e-01 2.594540999999999986e+00
1.901136708649468487e-01 2.567054999999999865e+00
1.942750635716576912e-01 2.530971000000000082e+00
1.985275213739692568e-01 2.498953999999999898e+00
2.028730886819132551e-01 2.482727000000000128e+00
2.073137384534022021e-01 2.487067000000000139e+00
2.118516148918974384e-01 2.506695999999999813e+00
2.164888283105038391e-01 2.528805000000000192e+00
2.212275340673810209e-01 2.540433000000000163e+00
2.260699835805370650e-01 2.535426000000000180e+00
2.310183752015635139e-01 2.516166000000000125e+00
2.360751096568884100e-01 2.490749000000000102e+00
2.412425341466744866e-01 2.469085999999999892e+00
2.465230998307618715e-01 2.458987000000000034e+00
2.519191833183147544e-01 2.462066999999999783e+00
2.574334553825345373e-01 2.471340000000000092e+00
2.630683822583526066e-01 2.473943999999999921e+00
2.688266710467492326e-01 2.458825000000000038e+00
2.747110108843249798e-01 2.423522000000000176e+00
2.807241335168895180e-01 2.374906000000000184e+00
2.868688920234096495e-01 2.324501999999999846e+00
2.931481028187655768e-01 2.282105000000000050e+00
2.995647922697904919e-01 2.251663999999999888e+00
3.061219491886544297e-01 2.232237000000000027e+00
3.128225983045015424e-01 2.221966999999999803e+00
3.196699982673885665e-01 2.219894000000000034e+00
3.266672524899394969e-01 2.223724999999999952e+00
3.338175913859038335e-01 2.227707999999999799e+00
3.411245032800827026e-01 2.225654000000000021e+00
3.485912903071751723e-01 2.217544999999999877e+00
3.562216425308692980e-01 2.211980000000000057e+00
3.640189144227933826e-01 2.220225999999999811e+00
3.719868599361595973e-01 2.248394999999999921e+00
3.801292743636255911e-01 2.295002999999999904e+00
3.884498326752345854e-01 2.353181000000000189e+00
3.969526737144291051e-01 2.414466000000000001e+00
4.056414997215270768e-01 2.472072999999999965e+00
4.145204868460213854e-01 2.521923999999999833e+00
4.235940173275368759e-01 2.561415000000000219e+00
4.328659535344370757e-01 2.588147999999999893e+00
4.423408678727827614e-01 2.600363999999999898e+00
4.520233696082087693e-01 2.598298999999999914e+00
4.619176604055267865e-01 2.584789999999999921e+00
4.720285331807737017e-01 2.564713999999999938e+00
4.823605567984378673e-01 2.543986999999999998e+00
4.929189725005434508e-01 2.528684999999999850e+00
5.037085542305222985e-01 2.523760999999999921e+00
5.147340034826902722e-01 2.530991000000000213e+00
5.260010193899755659e-01 2.547090999999999994e+00
5.375147682182568332e-01 2.563933000000000018e+00
5.492803329078241870e-01 2.572007000000000154e+00
5.613033013614973088e-01 2.565729999999999844e+00
5.735898580135665448e-01 2.547379999999999978e+00
5.861448258358571417e-01 2.527045000000000208e+00
5.989749143316128732e-01 2.518698000000000103e+00
6.120861303119130570e-01 2.534305999999999948e+00
6.254839682204105245e-01 2.577955000000000219e+00
6.391749019026319312e-01 2.643050000000000122e+00
6.531657310067570110e-01 2.715539999999999843e+00
6.674631727194452191e-01 2.781012000000000040e+00
6.820728740300071591e-01 2.829251000000000182e+00
6.970030263871405118e-01 2.854525000000000201e+00
7.122593364734473020e-01 2.855278000000000205e+00
7.278502433567288765e-01 2.834157999999999955e+00
7.437819826252529687e-01 2.796400000000000219e+00
7.600626595656545526e-01 2.747161000000000186e+00
7.766996323880640540e-01 2.690312000000000037e+00
7.937005574159013976e-01 2.628960000000000186e+00
8.110740810733430006e-01 2.565983000000000125e+00
8.288272757110509703e-01 2.503664999999999807e+00
8.469695429752346350e-01 2.442915000000000170e+00
8.655086161382736787e-01 2.383227000000000206e+00
8.844540397880493732e-01 2.323754999999999793e+00
9.038134601323364326e-01 2.264196999999999793e+00
9.235972635660274488e-01 2.204499999999999904e+00
9.438138195107080852e-01 2.144162999999999819e+00
9.644726842046378312e-01 2.082222999999999935e+00
9.855838648094324972e-01 2.017780000000000129e+00
1.007156856623164121e+00 1.950223999999999958e+00
1.029202594413900052e+00 1.879283999999999955e+00
1.051730412046940843e+00 1.805598999999999954e+00
1.074752242739242414e+00 1.731198000000000015e+00
1.098277132661993116e+00 1.658762999999999987e+00
1.122316821060050707e+00 1.590422000000000002e+00
1.146883687643933891e+00 1.527196999999999916e+00
1.171988078537265165e+00 1.468736999999999959e+00
1.197640647923590596e+00 1.413081999999999949e+00
1.223856887071053556e+00 1.357402999999999915e+00
1.250645645814651763e+00 1.300208999999999948e+00
1.278020601692099190e+00 1.243654000000000037e+00
1.305994514823037633e+00 1.193737999999999966e+00
1.334582502555725414e+00 1.157899000000000012e+00
1.363795059788775355e+00 1.141755000000000075e+00
1.393646643680787944e+00 1.146757999999999944e+00
1.424152486855072564e+00 1.169465999999999894e+00
1.455324450032890349e+00 1.202506999999999993e+00
1.487179029585939727e+00 1.237063999999999941e+00
1.519733742648287977e+00 1.266142000000000101e+00
1.552997595959721311e+00 1.286985000000000046e+00
1.586991746055928854e+00 1.301409000000000038e+00
1.621728568046108876e+00 1.314497999999999944e+00
1.657226002538870313e+00 1.332489000000000035e+00
1.693503044918474698e+00 1.360184000000000060e+00
1.730570880722132499e+00 1.398821000000000092e+00
1.768449794594556090e+00 1.445748000000000033e+00
1.807161419272292235e+00 1.496019999999999905e+00
1.846718657952616915e+00 1.544542999999999999e+00
1.887141395956233536e+00 1.587407999999999930e+00
1.928446905999783967e+00 1.622290999999999928e+00
1.970660801980119947e+00 1.648759000000000086e+00
2.013794492272063863e+00 1.668952999999999909e+00
2.057875696076454375e+00 1.687956999999999930e+00
2.102921167794182811e+00 1.712530000000000108e+00
2.148947875120341244e+00 1.748113999999999946e+00
2.195987491655247315e+00 1.795631999999999895e+00
2.244054377925685628e+00 1.850260000000000016e+00
2.293172994677545429e+00 1.903758000000000061e+00
2.343369202504593130e+00 1.949267000000000083e+00
2.394664687077192156e+00 1.985163000000000011e+00
2.447081854888045971e+00 2.015280999999999878e+00
2.500643915808320461e+00 2.045450000000000212e+00
2.555381505681890708e+00 2.078663000000000149e+00
2.611313778074887182e+00 2.112255999999999911e+00
2.668474113132628389e+00 2.139092999999999911e+00
2.726883526623927079e+00 2.151478000000000002e+00
2.786570957242854973e+00 2.145084000000000213e+00
2.847566896465314912e+00 2.121049000000000184e+00
2.909895098281706893e+00 2.085158999999999985e+00
2.973597428432943612e+00 2.044172999999999796e+00
3.038682427299522981e+00 2.001821000000000073e+00
3.105194680180473732e+00 1.957454999999999945e+00
3.173162659491088000e+00 1.907804999999999973e+00
3.242626267866870915e+00 1.850122999999999962e+00
3.313595350363004233e+00 1.784599000000000046e+00
3.386134456627003964e+00 1.714893000000000001e+00
3.460243531939777739e+00 1.646700000000000053e+00
3.535992871438371044e+00 1.585374999999999979e+00
3.613382523514086397e+00 1.534246999999999916e+00
3.692475841976804229e+00 1.494092999999999893e+00
3.773300128292204736e+00 1.463473000000000024e+00
3.855897402281920350e+00 1.439661000000000080e+00
3.940296625529969621e+00 1.419967999999999897e+00
4.026542971266589888e+00 1.402948000000000084e+00
4.114684485993613805e+00 1.388816999999999968e+00
4.204754736656211023e+00 1.378927999999999932e+00
4.296787721499407020e+00 1.374988000000000099e+00
4.390837200929101236e+00 1.378513000000000099e+00
4.486960891648868355e+00 1.390411000000000064e+00
4.585157844058781684e+00 1.410755999999999899e+00
4.685530612914259763e+00 1.438890999999999920e+00
4.788102522851219511e+00 1.473573999999999939e+00
4.892894538551115780e+00 1.513045999999999891e+00
