# frequency(Hz) HVamp
2.000000000000000042e-02 8.854459999999999553e-01
2.043777802275861116e-02 8.539769999999999861e-01
2.088513892042544867e-02 8.380440000000000111e-01
2.134229185993890415e-02 8.415230000000000210e-01
2.180945121728470465e-02 8.666129999999999667e-01
2.228683671448790371e-02 9.135360000000000147e-01
2.277467095838639488e-02 9.807200000000000362e-01
2.327318386720582041e-02 1.065255000000000063e+00
2.378260869151607032e-02 1.162025000000000086e+00
2.430318396985316209e-02 1.264604999999999979e+00
2.483515418061077798e-02 1.367566999999999977e+00
2.537876860438217572e-02 1.466523000000000021e+00
2.593428185548686538e-02 1.557773000000000074e+00
2.650195524800330604e-02 1.639629000000000003e+00
2.708205410122367304e-02 1.713051000000000101e+00
2.767485116257483238e-02 1.779687999999999937e+00
2.828062296556268368e-02 1.839752000000000054e+00
2.889965516642458918e-02 1.891947999999999963e+00
2.953223712425469966e-02 1.934433999999999987e+00
3.017866585007221089e-02 1.965316999999999981e+00
3.083924344304486698e-02 1.983170000000000099e+00
3.151428172097601316e-02 1.988161000000000067e+00
3.220409460893151193e-02 1.982663999999999982e+00
3.290900679366954434e-02 1.970172999999999952e+00
3.362935008254323843e-02 1.953815000000000079e+00
3.436545982617606604e-02 1.936409000000000047e+00
3.511768145762538679e-02 1.921608999999999901e+00
3.588636982920923035e-02 1.915016999999999969e+00
3.667188287528685281e-02 1.922604999999999897e+00
3.747459035401046190e-02 1.945171999999999901e+00
3.829486888200696326e-02 1.975008000000000097e+00
3.913310161841203338e-02 1.998450999999999977e+00
3.998968266187323539e-02 2.000726999999999922e+00
4.086501260624340881e-02 1.970118999999999954e+00
4.175950326235679244e-02 1.901227999999999918e+00
4.267357455111880221e-02 1.797253999999999907e+00
4.360765235805109941e-02 1.670203000000000104e+00
4.456217573218773653e-02 1.538022999999999918e+00
4.553759360593897382e-02 1.419308000000000014e+00
4.653436264861679494e-02 1.326853000000000060e+00
4.755294901990994583e-02 1.262888999999999928e+00
4.859383060501651364e-02 1.218566000000000038e+00
4.965749734357217948e-02 1.179883999999999933e+00
5.074444382592605690e-02 1.138813999999999993e+00
5.185518671652646766e-02 1.096834000000000087e+00
5.299023919793973553e-02 1.059118999999999922e+00
5.415013688613103116e-02 1.028555000000000108e+00
5.533542508618215922e-02 1.003389000000000086e+00
5.654665825930951795e-02 9.785009999999999541e-01
5.778440269534190765e-02 9.489720000000000377e-01
5.904923992113619846e-02 9.141510000000000469e-01
6.034176368113722960e-02 8.789470000000000338e-01
6.166257977365023624e-02 8.488409999999999567e-01
6.301230579922413588e-02 8.241110000000000380e-01
6.439157495481964699e-02 8.017320000000000002e-01
6.580103648476649802e-02 7.807070000000000398e-01
6.724135160227064090e-02 7.638669999999999627e-01
6.871319291929786632e-02 7.553450000000000442e-01
7.021724865648072689e-02 7.567730000000000290e-01
7.175422799231455373e-02 7.655960000000000543e-01
7.332484622679873165e-02 7.764210000000000278e-01
7.492985067379918929e-02 7.839800000000000102e-01
7.656998328017844413e-02 7.856370000000000298e-01
7.824601847091161577e-02 7.818420000000000369e-01
7.995873489609482687e-02 7.748300000000000187e-01
8.170894587125514252e-02 7.672740000000000116e-01
8.349746848200181870e-02 7.615420000000000522e-01
8.532513483931059017e-02 7.590109999999999912e-01
8.719280666320453066e-02 7.593459999999999654e-01
8.910136197668877545e-02 7.604940000000000033e-01
9.105169441740208758e-02 7.596359999999999779e-01
9.304472101470850909e-02 7.544539999999999580e-01
9.508136492722282784e-02 7.445410000000000084e-01
9.716259003207046441e-02 7.324530000000000207e-01
9.928937600698042876e-02 7.229870000000000463e-01
1.014627169666056788e-01 7.204329999999999901e-01
1.036836198025345573e-01 7.251060000000000283e-01
1.059531470945422049e-01 7.319480000000000430e-01
1.082723426204657002e-01 7.329940000000000344e-01
1.106423073612318730e-01 7.220579999999999776e-01
1.130641434367904014e-01 6.979499999999999593e-01
1.155389888050807612e-01 6.643850000000000033e-01
1.180680199308263012e-01 6.275340000000000362e-01
1.206523964642573915e-01 5.929539999999999811e-01
1.232933427266421494e-01 5.629459999999999464e-01
1.259921091142061633e-01 5.354139999999999455e-01
1.287499385219043613e-01 5.052219999999999489e-01
1.315681276210838024e-01 4.675270000000000259e-01
1.344480149355610776e-01 4.210650000000000226e-01
1.373909270603933253e-01 3.692449999999999899e-01
1.403982677661723133e-01 3.183270000000000266e-01
1.434714465996406174e-01 2.737840000000000273e-01
1.466118729226930095e-01 2.371959999999999902e-01
1.498210387691902012e-01 2.060589999999999922e-01
1.531004603883944215e-01 1.766409999999999925e-01
1.564516759885790365e-01 1.471899999999999875e-01
1.598762174374112610e-01 1.187939999999999968e-01
1.633757347823671657e-01 9.387299999999999811e-02
1.669518482487836186e-01 7.432400000000000118e-02
1.706062493069121222e-01 6.073699999999999932e-02
1.743406480276755433e-01 5.333199999999999746e-02
1.781567686922972404e-01 5.407700000000000007e-02
1.820564109071452219e-01 6.697599999999999387e-02
1.860414236112984399e-01 9.471100000000000352e-02
1.901136708649468487e-01 1.348530000000000006e-01
1.942750635716576912e-01 1.796510000000000051e-01
1.985275213739692568e-01 2.192989999999999939e-01
2.028730886819132551e-01 2.460739999999999872e-01
2.073137384534022021e-01 2.572220000000000062e-01
2.118516148918974384e-01 2.555649999999999866e-01
2.164888283105038391e-01 2.475120000000000098e-01
2.212275340673810209e-01 2.394610000000000072e-01
2.260699835805370650e-01 2.350490000000000079e-01
2.310183752015635139e-01 2.348490000000000022e-01
2.360751096568884100e-01 2.375780000000000114e-01
2.412425341466744866e-01 2.413810000000000122e-01
2.465230998307618715e-01 2.451589999999999880e-01
2.519191833183147544e-01 2.497409999999999908e-01
2.574334553825345373e-01 2.578610000000000069e-01
2.630683822583526066e-01 2.725139999999999785e-01
2.688266710467492326e-01 2.947219999999999840e-01
2.747110108843249798e-01 3.225459999999999994e-01
2.807241335168895180e-01 3.522629999999999928e-01
2.868688920234096495e-01 3.807869999999999866e-01
2.931481028187655768e-01 4.077569999999999806e-01
2.995647922697904919e-01 4.356670000000000265e-01
3.061219491886544297e-01 4.674949999999999939e-01
3.128225983045015424e-01 5.036680000000000046e-01
3.196699982673885665e-01 5.411949999999999816e-01
3.266672524899394969e-01 5.757430000000000048e-01
3.338175913859038335e-01 6.046829999999999705e-01
3.411245032800827026e-01 6.284340000000000481e-01
3.485912903071751723e-01 6.491529999999999800e-01
3.562216425308692980e-01 6.682360000000000522e-01
3.640189144227933826e-01 6.852770000000000250e-01
3.719868599361595973e-01 6.989119999999999777e-01
3.801292743636255911e-01 7.081079999999999597e-01
3.884498326752345854e-01 7.130729999999999569e-01
3.969526737144291051e-01 7.155540000000000234e-01
4.056414997215270768e-01 7.184450000000000003e-01
4.145204868460213854e-01 7.248280000000000278e-01
4.235940173275368759e-01 7.368540000000000090e-01
4.328659535344370757e-01 7.549219999999999819e-01
4.423408678727827614e-01 7.775330000000000297e-01
4.520233696082087693e-01 8.020909999999999984e-01
4.619176604055267865e-01 8.261969999999999592e-01
4.720285331807737017e-01 8.485669999999999602e-01
4.823605567984378673e-01 8.690219999999999612e-01
4.929189725005434508e-01 8.877960000000000296e-01
5.037085542305222985e-01 9.048589999999999689e-01
5.147340034826902722e-01 9.198319999999999830e-01
5.260010193899755659e-01 9.324189999999999978e-01
5.375147682182568332e-01 9.425360000000000404e-01
5.492803329078241870e-01 9.498079999999999856e-01
5.613033013614973088e-01 9.532150000000000345e-01
5.735898580135665448e-01 9.512199999999999545e-01
5.861448258358571417e-01 9.422490000000000032e-01
5.989749143316128732e-01 9.255929999999999991e-01
6.120861303119130570e-01 9.024630000000000152e-01
6.254839682204105245e-01 8.763419999999999543e-01
6.391749019026319312e-01 8.518999999999999906e-01
6.531657310067570110e-01 8.327780000000000182e-01
6.674631727194452191e-01 8.198130000000000139e-01
6.820728740300071591e-01 8.114139999999999686e-01
6.970030263871405118e-01 8.055499999999999883e-01
7.122593364734473020e-01 8.013470000000000315e-01
7.278502433567288765e-01 7.993799999999999795e-01
7.437819826252529687e-01 8.011230000000000295e-01
7.600626595656545526e-01 8.082629999999999537e-01
7.766996323880640540e-01 8.221699999999999564e-01
7.937005574159013976e-01 8.435049999999999493e-01
8.110740810733430006e-01 8.716589999999999616e-01
8.288272757110509703e-01 9.041069999999999940e-01
8.469695429752346350e-01 9.367710000000000203e-01
8.655086161382736787e-01 9.659630000000000161e-01
8.844540397880493732e-01 9.906380000000000186e-01
9.038134601323364326e-01 1.012818999999999914e+00
9.235972635660274488e-01 1.035730000000000040e+00
9.438138195107080852e-01 1.061662000000000106e+00
9.644726842046378312e-01 1.091820999999999930e+00
9.855838648094324972e-01 1.127895000000000092e+00
1.007156856623164121e+00 1.173226000000000102e+00
1.029202594413900052e+00 1.231562000000000046e+00
1.051730412046940843e+00 1.303776000000000046e+00
1.074752242739242414e+00 1.385952999999999991e+00
1.098277132661993116e+00 1.471465999999999941e+00
1.122316821060050707e+00 1.555388999999999911e+00
1.146883687643933891e+00 1.637170999999999932e+00
1.171988078537265165e+00 1.719635999999999942e+00
1.197640647923590596e+00 1.805700000000000083e+00
1.223856887071053556e+00 1.895127000000000006e+00
1.250645645814651763e+00 1.983135000000000092e+00
1.278020601692099190e+00 2.061967999999999801e+00
1.305994514823037633e+00 2.124887999999999888e+00
1.334582502555725414e+00 2.169875999999999916e+00
1.363795059788775355e+00 2.200026999999999955e+00
1.393646643680787944e+00 2.220877999999999908e+00
1.424152486855072564e+00 2.237693000000000154e+00
1.455324450032890349e+00 2.254677000000000042e+00
1.487179029585939727e+00 2.275142000000000220e+00
1.519733742648287977e+00 2.301273999999999820e+00
1.552997595959721311e+00 2.333810000000000162e+00
1.586991746055928854e+00 2.372447999999999890e+00
1.621728568046108876e+00 2.416793999999999887e+00
1.657226002538870313e+00 2.467388000000000137e+00
1.693503044918474698e+00 2.526549999999999851e+00
1.730570880722132499e+00 2.598193000000000197e+00
1.768449794594556090e+00 2.685140999999999778e+00
1.807161419272292235e+00 2.784746000000000166e+00
1.846718657952616915e+00 2.886766999999999861e+00
1.887141395956233536e+00 2.976205999999999907e+00
1.928446905999783967e+00 3.039372999999999880e+00
1.970660801980119947e+00 3.068983999999999934e+00
2.013794492272063863e+00 3.065621999999999847e+00
2.057875696076454375e+00 3.036062999999999956e+00
2.102921167794182811e+00 2.990063000000000137e+00
2.148947875120341244e+00 2.936834000000000167e+00
2.195987491655247315e+00 2.882592999999999961e+00
2.244054377925685628e+00 2.829860000000000042e+00
2.293172994677545429e+00 2.777880999999999823e+00
2.343369202504593130e+00 2.723920000000000119e+00
2.394664687077192156e+00 2.665055000000000174e+00
2.447081854888045971e+00 2.599114000000000146e+00
2.500643915808320461e+00 2.524809999999999999e+00
2.555381505681890708e+00 2.442286000000000179e+00
2.611313778074887182e+00 2.354118999999999851e+00
2.668474113132628389e+00 2.265585999999999878e+00
2.726883526623927079e+00 2.183348000000000066e+00
2.786570957242854973e+00 2.113173000000000190e+00
2.847566896465314912e+00 2.057798000000000016e+00
2.909895098281706893e+00 2.015779999999999905e+00
2.973597428432943612e+00 1.981891999999999987e+00
3.038682427299522981e+00 1.948914000000000035e+00
3.105194680180473732e+00 1.910026000000000002e+00
3.173162659491088000e+00 1.861053000000000068e+00
3.242626267866870915e+00 1.801990999999999898e+00
3.313595350363004233e+00 1.737133000000000038e+00
3.386134456627003964e+00 1.673481999999999914e+00
3.460243531939777739e+00 1.618168999999999969e+00
3.535992871438371044e+00 1.576291000000000109e+00
3.613382523514086397e+00 1.549692000000000069e+00
3.692475841976804229e+00 1.536675999999999931e+00
3.773300128292204736e+00 1.532637000000000027e+00
3.855897402281920350e+00 1.531541999999999959e+00
3.940296625529969621e+00 1.527976000000000001e+00
4.026542971266589888e+00 1.518971000000000071e+00
4.114684485993613805e+00 1.504582000000000086e+00
4.204754736656211023e+00 1.487150999999999890e+00
4.296787721499407020e+00 1.469875999999999960e+00
4.390837200929101236e+00 1.455399000000000109e+00
4.486960891648868355e+00 1.445027000000000061e+00
4.585157844058781684e+00 1.438636999999999944e+00
4.685530612914259763e+00 1.434995999999999938e+00
4.788102522851219511e+00 1.432212999999999958e+00
4.892894538551115780e+00 1.428163999999999989e+00
